,seconds,Trig,EMG_amplitude,EMG_amplitude_filter,peaks
0,0.0,5.000049991798719,-0.00019226327513760522,8.504892487153385e-05,0
1,4.0000000000040004e-05,5.000378781950543,-0.001178632758433426,-0.0009089162910827699,0
2,8.000000000008001e-05,5.001036362253937,0.0007941062093044515,0.001056229135590123,0
3,0.00011999999999989797,5.000049991798719,0.005397163818512657,0.005651695429887378,0
4,0.00015999999999993797,5.001036362253937,-0.0005210531030302584,-0.0002741105458529758,0
5,0.00019999999999997797,5.000378781950543,0.0030956350107915753,0.0033349908090430664,0
6,0.00024000000000001798,4.99972120164681,0.0021092655236763236,0.0023410368928302315,0
7,0.000280000000000058,5.000707572102282,-0.00019226327513760522,3.192602930160221e-05,0
8,0.000320000000000098,4.998734831190575,-0.004466531027802631,-0.004249921389142717,0
9,0.00035999999999991594,4.999392411494816,-0.001178632758433426,-0.0009696003520672904,0
10,0.00039999999999995595,4.999392411494816,-0.0015074225859438989,-0.0013059649438385802,0
11,0.00043999999999999595,5.002351522859708,-0.0005210531030302584,-0.0003271677226083006,0
12,0.00048000000000003595,4.998734831190575,-0.001178632758433426,-0.0009923171025760943,0
13,0.000520000000000076,4.998734831190575,0.00013652655288240445,0.00031527505583163733,0
14,0.0005599999999998939,5.002022732708393,0.0021092655236763236,0.0022804494799080225,0
15,0.0005999999999999339,5.000378781950543,0.004082004499051814,0.0042456265492865596,0
16,0.0006399999999999739,5.000049991798719,0.0021092655236763236,0.0022653283431604216,0
17,0.0006800000000000139,5.000378781950543,0.003753214669504526,0.0039017209680054423,0
18,0.0007200000000000539,5.000049991798719,0.003753214669504526,0.003894167191306072,0
19,0.0007600000000000939,5.000049991798719,0.0014516858662357995,0.0015850873901330316,0
20,0.0007999999999999119,5.000707572102282,0.0007941062093044515,0.0009199595485983136,0
21,0.0008399999999999519,4.99972120164681,0.0007941062093044515,0.0009124142117961625,0
22,0.0008799999999999919,4.99972120164681,-0.0008498429307955274,-0.0007390773828103638,0
23,0.0009200000000000319,4.99972120164681,-0.0015074225859438989,-0.0014041965756814618,0
24,0.0009600000000000719,5.000378781950543,-0.0008498429307955274,-0.0007541535069902064,0
25,0.001000000000000112,4.99972120164681,-0.001178632758433426,-0.001090476935344517,0
26,0.0010399999999999299,4.99972120164681,0.0014516858662357995,0.0015323111088171217,0
27,0.0010799999999999699,5.000049991798719,0.00013652655288240445,0.0002096242696258575,0
28,0.0011200000000000099,5.000378781950543,0.001780475694892425,0.0018460489749211034,0
29,0.0011600000000000499,4.99972120164681,0.001780475694892425,0.0018385276617750353,0
30,0.0012000000000000899,5.000049991798719,0.0021092655236763236,0.0021597993354191382,0
31,0.0012399999999999078,5.000049991798719,-0.004137741201439435,-0.004094722352400881,0
32,0.0012799999999999478,4.99972120164681,-0.003808951374948702,-0.003773444261758199,0
33,0.0013199999999999878,5.000049991798719,0.00013652655288240445,0.00016452519149291007,0
34,0.0013600000000000279,5.000049991798719,-0.0015074225859438989,-0.0014869291262426003,0
35,0.0014000000000000679,5.000378781950543,-0.002165002240582567,-0.0021520106297263446,0
36,0.0014400000000001079,5.000049991798719,0.001122896037706475,0.0011283891641654413,0
37,0.0014799999999999258,5.000378781950543,-0.00019226327513760522,-0.00019426523425429814,0
38,0.0015199999999999658,5.000049991798719,0.0014516858662357995,0.001442192254728619,0
39,0.0015600000000000058,5.000378781950543,-0.0031513717215847087,-0.0031683535179440796,0
40,0.0016000000000000458,4.99972120164681,0.0004653163810297567,0.00044084990169887366,0
41,0.0016400000000000858,5.000049991798719,0.00013652655288240445,0.00010457892679208809,0
42,0.0016799999999999038,5.000378781950543,-0.0024937920677107622,-0.002533217270028314,0
43,0.0017199999999999438,4.99972120164681,-0.0024937920677107622,-0.0025406912414147787,0
44,0.0017599999999999838,4.99972120164681,-0.0024937920677107622,-0.0025481615736637044,0
45,0.0018000000000000238,5.000378781950543,0.00013652655288240445,7.469038810276269e-05,0
46,0.0018400000000000638,4.999392411494816,-0.0031513717215847087,-0.003220670837496477,0
47,0.0018800000000001038,4.999392411494816,-0.0031513717215847087,-0.0032281300466743103,0
48,0.0019199999999999218,5.000378781950543,-0.004466531027802631,-0.004550744785868923,0
49,0.0019599999999999618,5.000049991798719,-0.0018362124133269458,-0.0019278777939350919,0
50,0.0020000000000000018,5.000049991798719,-0.0005210531030302584,-0.0006201662615251439,0
51,0.0020400000000000418,5.000378781950543,-0.0005210531030302584,-0.0006276101605501897,0
52,0.002080000000000082,5.000378781950543,-0.00019226327513760522,-0.00030626031862827853,0
53,0.0021199999999998997,5.000049991798719,-0.0031513717215847087,-0.0032728048038134453,0
54,0.0021599999999999397,4.99972120164681,-0.002165002240582567,-0.002293867380152827,0
55,0.0021999999999999797,5.000049991798719,-0.003808951374948702,-0.003945244556314849,0
56,0.0022400000000000198,5.000049991798719,-0.0015074225859438989,-0.0016511397594262396,0
57,0.0022800000000000598,5.000378781950543,-0.002165002240582567,-0.002316139322382643,0
58,0.0023200000000000998,5.000378781950543,-0.0028225818947114484,-0.0029811347669276107,0
59,0.0023599999999999177,5.000049991798719,0.0014516858662357995,0.001285721355592556,0
60,0.0023999999999999577,4.99972120164681,0.0004653163810297567,0.00029194441801969496,0
61,0.0024399999999999977,5.000049991798719,-0.0008498429307955274,-0.001030618126057274,0
62,0.0024800000000000377,4.99972120164681,-0.0008498429307955274,-0.0010380171041556028,0
63,0.0025200000000000777,4.99972120164681,-0.0018362124133269458,-0.0020317812766106834,0
64,0.0025599999999998957,4.99972120164681,-0.005452900506126915,-0.005655859737155523,0
65,0.0025999999999999357,5.000378781950543,-0.0031513717215847087,-0.003361716964192729,0
66,0.0026399999999999757,5.000049991798719,-0.0015074225859438989,-0.0017251494499969102,0
67,0.0026800000000000157,5.000378781950543,-0.0024937920677107622,-0.0027188961291233806,0
68,0.0027200000000000557,4.99972120164681,-0.001178632758433426,-0.00141110955918757,0
69,0.0027600000000000957,4.99972120164681,-0.0015074225859438989,-0.001747267634107312,0
70,0.0027999999999999137,5.000049991798719,-0.001178632758433426,-0.001425841528178479,0
71,0.0028399999999999537,4.99972120164681,-0.0024937920677107622,-0.002748359999333514,0
72,0.0028799999999999937,4.99972120164681,-0.0028225818947114484,-0.003084504394650982,0
73,0.0029200000000000337,5.000049991798719,-0.003808951374948702,-0.00407822381580672,0
74,0.0029600000000000737,4.99972120164681,-0.006439269983302923,-0.006715887703863608,0
75,0.0029999999999998916,5.000049991798719,-0.0031513717215847087,-0.0034353300268348667,0
76,0.0030399999999999316,4.99972120164681,-0.0047953208540382625,-0.005086615015187708,0
77,0.0030799999999999716,5.000378781950543,-0.0005210531030302584,-0.0008196783575325094,0
78,0.0031200000000000117,5.000049991798719,-0.0018362124133269458,-0.0021421639649001557,0
79,0.0031600000000000517,5.000049991798719,-0.0024937920677107622,-0.002807065086358948,0
80,0.0032000000000000917,4.999392411494816,-0.004137741201439435,-0.004458330823473956,0
81,0.0032399999999999096,4.99972120164681,-0.0031513717215847087,-0.003479273049646014,0
82,0.0032799999999999496,5.000049991798719,-0.002165002240582567,-0.0025002103436622012,0
83,0.0033199999999999896,4.99972120164681,0.0007941062093044515,0.0004515962958415733,0
84,0.0033600000000000296,5.000378781950543,0.001122896037706475,0.0007730893120995327,0
85,0.0034000000000000696,4.999392411494816,0.0014516858662357995,0.001094587360305252,0
86,0.0034400000000001096,5.000049991798719,0.00013652655288240445,-0.00022785866799308646,0
87,0.0034799999999999276,5.000049991798719,-0.0015074225859438989,-0.0018790894228508173,0
88,0.0035199999999999676,5.000049991798719,-0.006110480157705198,-0.006489423478218779,0
89,0.0035600000000000076,5.001036362253937,-0.010713537704454032,-0.011099752342662141,0
90,0.0036000000000000476,4.999392411494816,-0.00348016154833046,-0.0038736423048577233,0
91,0.0036400000000000876,4.999063621342738,-0.002165002240582567,-0.002565743882614761,0
92,0.0036799999999999056,5.000378781950543,-0.001178632758433426,-0.0015866300197421807,0
93,0.0037199999999999456,5.000049991798719,-0.002165002240582567,-0.0025802498215503214,0
94,0.0037599999999999856,5.000049991798719,-0.002165002240582567,-0.002587494808227798,0
95,0.0038000000000000256,4.999392411494816,-0.0015074225859438989,-0.0019371547739466092,0
96,0.0038400000000000656,5.000049991798719,-0.001178632758433426,-0.0016155991671608946,0
97,0.0038800000000001056,5.000378781950543,-0.0015074225859438989,-0.0019516177824766968,0
98,0.0039199999999999235,5.000049991798719,-0.0005210531030302584,-0.00097247162118853,0
99,0.0039599999999999635,5.000049991798719,-0.0008498429307955274,-0.0013084792711655349,0
100,0.0040000000000000036,4.99972120164681,-0.0031513717215847087,-0.0036172203515456467,0
101,0.0040400000000000436,5.000707572102282,-0.0028225818947114484,-0.003295637248462522,0
102,0.0040800000000000836,5.000707572102282,-0.0015074225859438989,-0.0019876790645316582,0
103,0.0041199999999999015,5.000378781950543,-0.001178632758433426,-0.0016660847297793684,0
104,0.0041599999999999415,4.999392411494816,-0.0008498429307955274,-0.001344484729723964,0
105,0.0041999999999999815,5.000378781950543,-0.001178632758433426,-0.0016804586866996088,0
106,0.0042400000000000215,5.000049991798719,-0.002165002240582567,-0.0026740065669010804,0
107,0.0042800000000000615,5.000378781950543,-0.0005210531030302584,-0.001037230063103677,0
108,0.0043200000000001015,5.000378781950543,0.0004653163810297567,-5.802741551804531e-05,0
109,0.0043599999999999195,5.000378781950543,-0.001178632758433426,-0.0017091375612211755,0
110,0.0043999999999999595,5.000707572102282,-0.0015074225859438989,-0.0020450825318126947,0
111,0.0044399999999999995,4.999392411494816,-0.0024937920677107622,-0.0030386012606069416,0
112,0.0044800000000000395,5.000049991798719,0.0014516858662357995,0.0008997333552306832,0
113,0.0045200000000000795,5.000049991798719,-0.0018362124133269458,-0.0023953022806879904,0
114,0.0045599999999998975,4.99972120164681,-0.002165002240582567,-0.002731223469742479,0
115,0.0045999999999999375,5.000378781950543,-0.0031513717215847087,-0.003724718285213119,0
116,0.0046399999999999775,5.000049991798719,-0.0047953208540382625,-0.005375786692062505,0
117,0.0046800000000000175,5.000378781950543,-0.0031513717215847087,-0.003738950741221099,0
118,0.0047200000000000575,4.99972120164681,0.0004653163810297567,-0.00012936969475558753,0
119,0.0047600000000000975,5.000049991798719,0.0030956350107915753,0.0024938480369681914,0
120,0.0047999999999999154,4.99972120164681,0.001780475694892425,0.001171594013757596,0
121,0.0048399999999999554,4.99972120164681,-0.0005210531030302584,-0.001137023268166575,0
122,0.0048799999999999955,5.000049991798719,0.00013652655288240445,-0.0004865258403946469,0
123,0.0049200000000000355,5.000049991798719,-0.006439269983302923,-0.0070693983163419745,0
124,0.0049600000000000755,5.000049991798719,-0.005781690331979852,-0.006418888283917289,0
125,0.004999999999999893,4.99972120164681,-0.006768059808773,-0.007412321026293654,0
126,0.005039999999999933,4.999392411494816,-0.004466531027802631,-0.005117849125173389,0
127,0.005079999999999973,5.000378781950543,-0.001178632758433426,-0.0018370013175370904,0
128,0.005120000000000013,5.000049991798719,0.005725953648695714,0.005060541078326289,0
129,0.005160000000000053,5.000049991798719,0.0030956350107915753,0.0024231849119390964,0
130,0.0052000000000000934,5.000049991798719,-0.00019226327513760522,-0.0008717443874095465,0
131,0.005239999999999911,5.000049991798719,-0.0024937920677107622,-0.0031802976460926025,0
132,0.005279999999999951,5.000707572102282,-0.0005210531030302584,-0.0012145765680016264,0
133,0.005319999999999991,5.000049991798719,-0.0008498429307955274,-0.0015503776706606578,0
134,0.005360000000000031,4.99972120164681,-0.00019226327513760522,-0.0008998026460610231,0
135,0.005400000000000071,4.999063621342738,-0.0015074225859438989,-0.0022219599119863514,0
136,0.005440000000000111,5.000378781950543,0.001122896037706475,0.0004013674645518225,0
137,0.005479999999999929,5.000049991798719,0.001780475694892425,0.0010519626146635523,0
138,0.005519999999999969,5.000049991798719,-0.0005210531030302584,-0.0012565439183009311,0
139,0.005560000000000009,5.000378781950543,0.0024380553525874815,0.0016955936062649068,0
140,0.005600000000000049,4.99972120164681,0.0004653163810297567,-0.00028410946043453864,0
141,0.005640000000000089,4.99972120164681,-0.00019226327513760522,-0.0009486463439506308,0
142,0.005679999999999907,5.000049991798719,0.003424424840084442,0.0026610914435607723,0
143,0.005719999999999947,5.000378781950543,0.0024380553525874815,0.0016677785597983895,0
144,0.005759999999999987,4.99972120164681,0.001780475694892425,0.0010032624690520355,0
145,0.005800000000000027,5.000049991798719,-0.0018362124133269458,-0.0026203550772740678,0
146,0.005840000000000067,4.99972120164681,0.0021092655236763236,0.0013182004482587477,0
147,0.005880000000000107,5.000049991798719,-0.0005210531030302584,-0.0013190335316292498,0
148,0.005919999999999925,5.000049991798719,-0.0015074225859438989,-0.002312311277821746,0
149,0.005959999999999965,5.000378781950543,0.0004653163810297567,-0.0003464734526503351,0
150,0.006000000000000005,5.000049991798719,0.00013652655288240445,-0.00068215726958899,0
151,0.006040000000000045,5.000049991798719,0.0004653163810297567,-0.0003602542457276528,0
152,0.006080000000000085,4.99972120164681,0.0027668451816259126,0.001934394966541891,0
153,0.006119999999999903,5.000049991798719,0.0021092655236763236,0.0012699429676387257,0
154,0.006159999999999943,5.000049991798719,0.0024380553525874815,0.0015918677343422338,0
155,0.006199999999999983,5.000049991798719,0.0007941062093044515,-5.8939161070614135e-05,0
156,0.006240000000000023,5.000378781950543,0.0004653163810297567,-0.00039457940010663244,0
157,0.006280000000000063,5.000378781950543,-0.001178632758433426,-0.002045371577713464,0
158,0.006320000000000103,4.99972120164681,0.0014516858662357995,0.0005781114126372313,0
159,0.006359999999999921,4.999392411494816,0.001780475694892425,0.0009000730419659159,0
160,0.006399999999999961,4.999392411494816,0.003424424840084442,0.0025372014539438146,0
161,0.006440000000000001,4.99972120164681,0.0007941062093044515,-9.993041285571622e-05,0
162,0.006480000000000041,4.999392411494816,0.001780475694892425,0.0008796333649453117,0
163,0.006520000000000081,4.99972120164681,0.0030956350107915753,0.002187994532285172,0
164,0.006559999999999899,4.99972120164681,0.0007941062093044515,-0.00012032482758174445,0
165,0.006599999999999939,5.000049991798719,0.00013652655288240445,-0.0007846874212957174,0
166,0.006639999999999979,5.000049991798719,0.004082004499051814,0.0031540152395342948,0
167,0.006680000000000019,5.000049991798719,0.0030956350107915753,0.0021608781487079034,0
168,0.006720000000000059,5.000378781950543,0.0004653163810297567,-0.00047620037007032614,0
169,0.006760000000000099,4.99972120164681,0.001122896037706475,0.00017462714187177573,0
170,0.006799999999999917,5.000378781950543,0.001780475694892425,0.0008254624292922774,0
171,0.006839999999999957,5.000049991798719,0.001122896037706475,0.00016114620795249467,0
172,0.006879999999999997,5.000049991798719,0.0024380553525874815,0.0014695767948885567,0
173,0.006920000000000037,4.99972120164681,0.003424424840084442,0.002449225421201328,0
174,0.006960000000000077,5.000378781950543,-0.00019226327513760522,-0.0011741756579379376,0
175,0.006999999999999895,5.000049991798719,-0.00019226327513760522,-0.001180880694127872,0
176,0.007039999999999935,5.000378781950543,0.0024380553525874815,0.0014427408555487482,0
177,0.007079999999999975,5.000049991798719,0.0014516858662357995,0.00044968227965787506,0
178,0.007120000000000015,5.000378781950543,0.001780475694892425,0.0007717910376057644,0
179,0.007160000000000055,5.000378781950543,0.003424424840084442,0.0024090671611938217,0
180,0.007200000000000095,5.000049991798719,0.0007941062093044515,-0.00022791641185812908,0
181,0.007239999999999913,4.99972120164681,0.0021092655236763236,0.0010805860697536485,0
182,0.007279999999999953,4.99972120164681,0.0027668451816259126,0.0017315170345873015,0
183,0.007319999999999993,5.000378781950543,0.00013652655288240445,-0.0009054421175435192,0
184,0.007360000000000033,5.000378781950543,0.004410794328726292,0.003362193334678071,0
185,0.007400000000000073,5.000378781950543,0.004739584158527918,0.003684359070610519,0
186,0.007440000000000113,5.000049991798719,0.004410794328726292,0.003348953406632384,0
187,0.007479999999999931,4.99972120164681,0.004739584158527918,0.00367113569184094,0
188,0.007519999999999971,5.000049991798719,0.001780475694892425,0.0007054280030375677,0
189,0.007560000000000011,5.000049991798719,0.0007941062093044515,-0.0002875323585005945,0
190,0.007600000000000051,5.000378781950543,0.0027668451816259126,0.0016786241168313992,0
191,0.007640000000000091,5.000049991798719,0.0021092655236763236,0.0010144703705463904,0
192,0.007679999999999909,4.99972120164681,0.0021092655236763236,0.00100790472050839,0
193,0.007719999999999949,4.99972120164681,0.0024380553525874815,0.0013301373672721566,0
194,0.007759999999999989,4.99972120164681,0.004082004499051814,0.002967537829022477,0
195,0.007800000000000029,5.000049991798719,0.004082004499051814,0.002960997671233959,0
196,0.00784000000000007,4.99972120164681,0.004739584158527918,0.0036120457292882413,0
197,0.00788000000000011,4.99972120164681,0.00013652655288240445,-0.000997534892022325,0
198,0.007919999999999927,5.000378781950543,0.0027668451816259126,0.0016262693361515832,0
199,0.007959999999999967,5.000049991798719,0.0027668451816259126,0.001619763579964527,0
200,0.008000000000000007,4.99972120164681,0.004410794328726292,0.0032572156444956282,0
201,0.008040000000000047,5.000049991798719,0.004739584158527918,0.0035795170945289233,0
202,0.008080000000000087,5.000378781950543,0.005397163818512657,0.004230617106677146,0
203,0.008119999999999905,4.99972120164681,0.006383533309443135,0.005210515710781266,0
204,0.008159999999999945,5.000049991798719,0.0030956350107915753,0.0019161553153390941,0
205,0.008199999999999985,5.000049991798719,0.005725953648695714,0.004540020675460946,0
206,0.008240000000000025,5.000049991798719,0.004082004499051814,0.002889627095962466,0
207,0.008280000000000065,4.999392411494816,0.006054743479005864,0.0048559305228555545,0
208,0.008320000000000105,5.000049991798719,0.007369902801517392,0.006164663197911969,0
209,0.008359999999999923,5.000707572102282,0.007369902801517392,0.006158245484821009,0
210,0.008399999999999963,5.000049991798719,0.00506837398845672,0.0038503079217376878,0
211,0.008440000000000003,5.000378781950543,0.006054743479005864,0.004830277653982269,0
212,0.008480000000000043,4.998734831190575,0.001780475694892425,0.000549619131877549,0
213,0.008520000000000083,5.001036362253937,0.00506837398845672,0.003831135736304191,0
214,0.008559999999999901,4.999063621342738,0.004739584158527918,0.0034959732945766563,0
215,0.008599999999999941,5.001036362253937,0.0007941062093044515,-0.00045586816067663314,0
216,0.008639999999999981,5.000378781950543,0.004082004499051814,0.0028256757571842655,0
217,0.008680000000000021,4.998734831190575,0.003753214669504526,0.0024905407182125843,0
218,0.008720000000000061,5.001036362253937,0.008685062126061585,0.007416052156070036,0
219,0.008760000000000101,4.99972120164681,0.006383533309443135,0.005108196539683279,0
220,0.008799999999999919,5.002022732708393,0.009342641789095676,0.008060987466648878,0
221,0.008839999999999959,5.001036362253937,0.006712323140007484,0.005424360540048516,0
222,0.008879999999999999,5.001036362253937,0.00506837398845672,0.0037741124141968617,0
223,0.008920000000000039,4.999063621342738,0.004410794328726292,0.00311024311135621,0
224,0.008960000000000079,4.9967620902758165,0.008027482463535476,0.006720650962167877,0
225,0.008999999999999897,5.001036362253937,0.008027482463535476,0.006714380065147538,0
226,0.009039999999999937,4.998734831190575,0.005725953648695714,0.00440658976807129,0
227,0.009079999999999977,5.000378781950543,0.003753214669504526,0.0024275987491761183,0
228,0.009120000000000017,4.99972120164681,0.005397163818512657,0.00406530532870317,0
229,0.009160000000000057,5.000049991798719,0.00506837398845672,0.003730282427021003,0
230,0.009200000000000097,5.000049991798719,0.007369902801517392,0.006025587693883546,0
231,0.009239999999999915,5.000378781950543,0.006054743479005864,0.004704214378116342,0
232,0.009279999999999955,5.000378781950543,0.004082004499051814,0.002725270985304277,0
233,0.009319999999999995,5.000378781950543,0.00506837398845672,0.0037054456696446834,0
234,0.009360000000000035,4.99972120164681,0.006383533309443135,0.005014419820696397,0
235,0.009400000000000075,5.000378781950543,0.004410794328726292,0.0030355053324511447,0
236,0.009439999999999893,5.000049991798719,0.006712323140007484,0.0053308683258266815,0
237,0.009479999999999933,5.000049991798719,0.003424424840084442,0.0020368139247769813,0
238,0.009519999999999973,4.99972120164681,0.006054743479005864,0.0046609862064465254,0
239,0.009560000000000013,4.99972120164681,0.008685062126061585,0.00728516826716028,0
240,0.009600000000000053,5.000378781950543,0.01065780111668721,0.009251780469328098,0
241,0.009640000000000093,5.000378781950543,0.004739584158527918,0.0033274465475083203,0
242,0.009679999999999911,5.000378781950543,0.009342641789095676,0.007924397066064744,0
243,0.009719999999999951,5.000378781950543,0.009013851957515154,0.007589510000912377,0
244,0.009759999999999991,5.000378781950543,0.009342641789095676,0.007912212504089125,0
245,0.009800000000000031,5.000378781950543,0.005397163818512657,0.003960657136937026,0
246,0.009840000000000071,5.000378781950543,0.008685062126061585,0.007242488006355973,0
247,0.009880000000000111,5.000049991798719,0.005725953648695714,0.00427732207584121,0
248,0.009919999999999929,4.99972120164681,0.008027482463535476,0.006572803448992505,0
249,0.009959999999999969,5.000707572102282,0.008027482463535476,0.006566766045180962,0
250,0.010000000000000009,5.000378781950543,0.007041112970698912,0.005574369212763188,0
251,0.010040000000000049,5.000049991798719,0.006712323140007484,0.005239562133011006,0
252,0.010080000000000089,5.000049991798719,0.009342641789095676,0.007863873649785535,0
253,0.010119999999999907,4.99972120164681,0.01065780111668721,0.009173035987973413,0
254,0.010159999999999947,5.000378781950543,0.009671431620803153,0.00818067967169469,0
255,0.010199999999999987,5.000707572102282,0.0076986926324629085,0.00620196405800361,0
256,0.010240000000000027,5.000049991798719,0.007041112970698912,0.005538417991903131,0
257,0.010280000000000067,5.000049991798719,0.006383533309443135,0.004874882173231204,0
258,0.010320000000000107,4.99972120164681,0.006712323140007484,0.005197726119140978,0
259,0.010359999999999925,5.000378781950543,0.0027668451816259126,0.0012463125746426868,0
260,0.010399999999999965,5.000378781950543,0.004082004499051814,0.00255554663020083,0
261,0.010440000000000005,4.99972120164681,0.005397163818512657,0.003864791037688621,0
262,0.010480000000000045,5.000049991798719,0.009013851957515154,0.0074755746401929295,0
263,0.010520000000000085,5.000049991798719,0.01295932994485767,0.011415158492026482,0
264,0.010559999999999903,5.000378781950543,0.008685062126061585,0.007135006964159021,0
265,0.010599999999999943,5.000378781950543,0.0076986926324629085,0.0061427642133087025,0
266,0.010639999999999983,5.000378781950543,0.009013851957515154,0.007452060758244809,0
267,0.010680000000000023,5.000707572102282,0.005397163818512657,0.00382952034151084,0
268,0.010720000000000063,5.000049991798719,0.005397163818512657,0.0038236785913463886,0
269,0.010760000000000103,5.000378781950543,0.0076986926324629085,0.006119376207814564,0
270,0.01079999999999992,5.000378781950543,0.008356272294735026,0.006771135250335137,0
271,0.01083999999999996,4.99972120164681,0.008027482463535476,0.006436535402095319,0
272,0.01088,5.000049991798719,0.0076986926324629085,0.0061019461816068845,0
273,0.01092000000000004,5.000707572102282,0.006054743479005864,0.004452208291203676,0
274,0.01096000000000008,4.99972120164681,0.008027482463535476,0.0064191692160340845,0
275,0.010999999999999899,4.99972120164681,0.009013851957515154,0.007399771352270558,0
276,0.011039999999999939,5.000378781950543,0.008027482463535476,0.006407645227144271,0
277,0.011079999999999979,4.999392411494816,0.009671431620803153,0.008045848504433878,0
278,0.011120000000000019,5.000049991798719,0.007041112970698912,0.005409794750023213,0
279,0.011160000000000059,4.99972120164681,0.0076986926324629085,0.006061650107586466,0
280,0.011200000000000099,5.000707572102282,0.006712323140007484,0.005069567135400776,0
281,0.011239999999999917,5.000049991798719,0.008027482463535476,0.006379023827964316,0
282,0.011279999999999957,5.000049991798719,0.009013851957515154,0.007359701563971052,0
283,0.011319999999999997,5.000378781950543,0.006054743479005864,0.004394912224636191,0
284,0.011360000000000037,5.000378781950543,0.007041112970698912,0.005375611776736866,0
285,0.011400000000000077,5.000707572102282,0.008685062126061585,0.0070139019377559834,0
286,0.011439999999999895,5.000049991798719,0.005397163818512657,0.0037203556050575282,0
287,0.011479999999999935,5.000049991798719,0.005397163818512657,0.0037147185729766285,0
288,0.011519999999999975,5.000049991798719,0.006054743479005864,0.004366672218261364,0
289,0.011560000000000015,4.999392411494816,0.006054743479005864,0.0043610572436581325,0
290,0.011600000000000055,5.000378781950543,0.009342641789095676,0.007643351643411581,0
291,0.011640000000000095,5.000049991798719,0.003753214669504526,0.0020483317013412048,0
292,0.011679999999999913,4.99972120164681,0.006712323140007484,0.005001858460740761,0
293,0.011719999999999953,4.99972120164681,0.003424424840084442,0.0017083895845371034,0
294,0.011759999999999993,4.99972120164681,0.006712323140007484,0.004990728466377322,0
295,0.011800000000000033,4.99972120164681,0.005397163818512657,0.0036700209083003607,0
296,0.011840000000000073,4.999392411494816,0.008027482463535476,0.00629480252147231,0
297,0.011880000000000113,4.99972120164681,0.012301750279031881,0.010563544533007199,0
298,0.01191999999999993,4.99972120164681,0.006712323140007484,0.00496860284099605,0
299,0.01195999999999997,5.000049991798719,0.008685062126061585,0.006935838548050677,0
300,0.01200000000000001,5.000049991798719,0.005397163818512657,0.003642448258429019,0
301,0.01204000000000005,5.000378781950543,0.006712323140007484,0.004952126917644059,0
302,0.01208000000000009,5.000378781950543,0.00506837398845672,0.0033027084463992176,0
303,0.012119999999999909,5.000049991798719,0.006383533309443135,0.00461240981299639,0
304,0.012159999999999949,5.000378781950543,0.005725953648695714,0.003949383585809903,0
305,0.012199999999999989,4.99972120164681,0.010000221452637598,0.008218216233834237,0
306,0.012240000000000029,5.000049991798719,0.007041112970698912,0.005253684028996704,0
307,0.012280000000000069,5.000707572102282,0.0076986926324629085,0.005905851423303375,0
308,0.012320000000000109,5.001036362253937,0.01065780111668721,0.008859559117860176,0
309,0.012359999999999927,5.000378781950543,0.007369902801517392,0.005566271513086269,0
310,0.012399999999999967,5.000707572102282,0.006383533309443135,0.004574524253670024,0
311,0.012440000000000007,4.99972120164681,0.008356272294735026,0.006541897016005648,0
312,0.012480000000000047,5.000378781950543,0.006712323140007484,0.004892593204755933,0
313,0.012520000000000087,4.99972120164681,0.009013851957515154,0.007188778954148472,0
314,0.012559999999999905,4.99972120164681,0.009342641789095676,0.007512237327918268,0
315,0.012599999999999945,4.99972120164681,0.008356272294735026,0.006520548007872882,0
316,0.012639999999999985,4.99972120164681,0.007369902801517392,0.005528870342842147,0
317,0.012680000000000025,5.000049991798719,0.009013851957515154,0.007167523002567958,0
318,0.012720000000000065,4.999392411494816,0.008685062126061585,0.00683344837197681,0
319,0.012760000000000105,4.99972120164681,0.006712323140007484,0.004855436305436247,0
320,0.012799999999999923,5.000049991798719,0.008356272294735026,0.006494124119768559,0
321,0.012839999999999963,5.000378781950543,0.0076986926324629085,0.005831294878555767,0
322,0.012880000000000003,4.99972120164681,0.007041112970698912,0.005168477420591996,0
323,0.012920000000000043,5.001036362253937,0.007041112970698912,0.0051632514283423145,0
324,0.012960000000000083,4.99972120164681,0.0076986926324629085,0.0058156169229386075,0
325,0.0129999999999999,5.000049991798719,0.003753214669504526,0.0018649366389489079,0
326,0.01303999999999994,4.99972120164681,0.004410794328726292,0.0025173258442524864,0
327,0.01307999999999998,5.000378781950543,0.00506837398845672,0.0031697269380767906,0
328,0.01312000000000002,4.999392411494816,0.006054743479005864,0.0041509297715528115,0
329,0.01316000000000006,4.999392411494816,0.005397163818512657,0.003488195383562265,0
330,0.0132000000000001,4.99972120164681,0.008685062126061585,0.006770950913854083,0
331,0.013239999999999919,4.999392411494816,0.011972960446309217,0.010053718427670784,0
332,0.013279999999999959,5.000049991798719,0.009671431620803153,0.007747070787067243,0
333,0.013319999999999999,5.000707572102282,0.01032901128459894,0.008399543647527425,0
334,0.013360000000000039,5.000049991798719,0.0076986926324629085,0.0057641302241670704,0
335,0.013400000000000079,5.000378781950543,0.01032901128459894,0.008389366157460297,0
336,0.013439999999999896,4.99972120164681,0.007041112970698912,0.005096397197289887,0
337,0.013479999999999936,5.000378781950543,0.0024380553525874815,0.0004882810255918864,0
338,0.013519999999999976,5.000049991798719,0.003753214669504526,0.0017983939016378864,0
339,0.013560000000000016,5.000378781950543,0.005397163818512657,0.0034373087424423732,0
340,0.013600000000000056,5.000049991798719,0.007041112970698912,0.005076235738964248,0
341,0.013640000000000096,4.999392411494816,0.008027482463535476,0.006057595248467386,0
342,0.013679999999999914,5.000378781950543,0.005725953648695714,0.003751068642336509,0
343,0.013719999999999954,4.99972120164681,0.006054743479005864,0.00407487289302871,0
344,0.013759999999999994,4.99972120164681,0.003753214669504526,0.0017683707351327967,0
345,0.013800000000000034,5.000049991798719,0.006712323140007484,0.00472251810793395,0
346,0.013840000000000074,5.000049991798719,0.0076986926324629085,0.005703938772768789,0
347,0.013879999999999892,5.000049991798719,0.005725953648695714,0.003726263250769552,0
348,0.013919999999999932,5.000707572102282,0.00506837398845672,0.003063759360913101,0
349,0.013959999999999972,5.000049991798719,0.01032901128459894,0.008319484755197065,0
350,0.014000000000000012,5.000378781950543,0.0076986926324629085,0.005684266548025028,0
351,0.014040000000000052,4.999392411494816,0.006712323140007484,0.004693009866337155,0
352,0.014080000000000092,5.000049991798719,0.003753214669504526,0.0017290265913047168,0
353,0.01411999999999991,5.000378781950543,0.0027668451816259126,0.0007377947024169466,0
354,0.01415999999999995,5.000378781950543,0.005725953648695714,0.0036920531907330746,0
355,0.01419999999999999,5.000049991798719,0.00506837398845672,0.003029635992648707,0
356,0.01424000000000003,4.999063621342738,0.0076986926324629085,0.005655129558288128,0
357,0.01428000000000007,5.000378781950543,0.009671431620803153,0.0076230559462278835,0
358,0.01432000000000011,5.000049991798719,0.0076986926324629085,0.005645516853858284,0
359,0.014359999999999928,4.99972120164681,0.003753214669504526,0.0016952513015635875,0
360,0.014399999999999968,5.000049991798719,0.005397163818512657,0.0033344253941672494,0
361,0.014440000000000008,5.000707572102282,0.003424424840084442,0.0013569239104219977,0
362,0.014480000000000048,4.99972120164681,0.00506837398845672,0.002996123122636869,0
363,0.014520000000000088,5.000049991798719,0.004082004499051814,0.0020050162842228606,0
364,0.014559999999999906,5.000378781950543,0.005397163818512657,0.003315450859727905,0
365,0.014599999999999946,5.000049991798719,0.005397163818512657,0.0033107387386465846,0
366,0.014639999999999986,4.99972120164681,0.009342641789095676,0.007251517228759975,0
367,0.014680000000000026,5.000049991798719,0.005397163818512657,0.0033013524359721373,0
368,0.014720000000000066,5.000049991798719,0.004082004499051814,0.0019815189701401217,0
369,0.014760000000000106,4.99972120164681,0.0007941062093044515,-0.0013110407726603206,0
370,0.014799999999999924,4.99972120164681,0.004082004499051814,0.0019722087747519566,0
371,0.014839999999999964,4.99972120164681,0.006383533309443135,0.00426910157084142,0
372,0.014880000000000004,5.000049991798719,0.008027482463535476,0.005908427455895551,0
373,0.014920000000000044,4.99972120164681,0.006054743479005864,0.003931077964736846,0
374,0.014960000000000084,5.000378781950543,0.005725953648695714,0.0035976904072670965,0
375,0.014999999999999902,4.99972120164681,0.006712323140007484,0.004579474967863915,0
376,0.015039999999999942,4.999392411494816,0.005397163818512657,0.00325974352898858,0
377,0.015079999999999982,5.000378781950543,0.005725953648695714,0.003583974071929859,0
378,0.015120000000000022,5.000378781950543,0.005397163818512657,0.0032506378013624085,0
379,0.015160000000000062,4.999392411494816,0.0076986926324629085,0.00554763303841855,0
380,0.015200000000000102,4.99972120164681,0.004739584158527918,0.0025840038676267574,0
381,0.01523999999999992,4.99972120164681,0.003753214669504526,0.0015931265782448759,0
382,0.01527999999999996,5.000378781950543,0.004410794328726292,0.0022462113499813474,0
383,0.01532,4.99972120164681,0.0024380553525874815,0.0002689904155190725,0
384,0.01536000000000004,4.99972120164681,0.00506837398845672,0.002894840038428912,0
385,0.01540000000000008,5.000049991798719,0.005397163818512657,0.003219173817005252,0
386,0.015439999999999898,5.000049991798719,0.009342641789095676,0.007160208713617568,0
387,0.015479999999999938,4.999392411494816,0.006383533309443135,0.0041966701534455544,0
388,0.015519999999999978,4.999063621342738,0.006054743479005864,0.0038634632517954783,0
389,0.015560000000000018,4.99972120164681,0.005397163818512657,0.003201479545164562,0
390,0.015600000000000058,4.999392411494816,0.005397163818512657,0.0031970885397832388,0
391,0.0156400000000001,5.000049991798719,0.004082004499051814,0.001877551271291484,0
392,0.015679999999999916,5.000378781950543,0.0024380553525874815,0.0002292372476532913,0
393,0.015719999999999956,5.000049991798719,0.00506837398845672,0.0028552040936248467,0
394,0.015759999999999996,5.000707572102282,0.005397163818512657,0.003179655236390792,0
395,0.015800000000000036,4.99972120164681,0.0007941062093044515,-0.0014277279422559514,0
396,0.015840000000000076,4.99972120164681,0.0021092655236763236,-0.00011688106431527196,0
397,0.015879999999999894,4.999392411494816,0.006054743479005864,0.0038242976026583437,0
398,0.015919999999999934,4.999063621342738,0.005397163818512657,0.0031624318168643087,0
399,0.015959999999999974,4.99972120164681,0.005725953648695714,0.003486948699693234,0
400,0.016000000000000014,5.000707572102282,0.0076986926324629085,0.005455427928856258,0
401,0.016040000000000054,5.000049991798719,0.005725953648695714,0.0034784423979496723,0
402,0.016080000000000094,4.99972120164681,0.007369902801517392,0.005118158225722976,0
403,0.016119999999999912,5.000707572102282,0.0030956350107915753,0.0008396703465773682,0
404,0.016159999999999952,5.000378781950543,0.004082004499051814,0.0018218329974951462,0
405,0.016199999999999992,5.000049991798719,0.003424424840084442,0.001160059766622503,0
406,0.016240000000000032,5.000378781950543,0.0024380553525874815,0.00016950998692830382,0
407,0.016280000000000072,5.000049991798719,0.004739584158527918,0.0024668717945612447,0
408,0.016320000000000112,4.99972120164681,0.0027668451816259126,0.0004899791273339773,0
409,0.01635999999999993,5.000378781950543,0.006383533309443135,0.004102526886811293,0
410,0.01639999999999997,5.000378781950543,0.0021092655236763236,-0.0001758679313963894,0
411,0.01644000000000001,5.000049991798719,0.004082004499051814,0.0017927573612613462,0
412,0.01648000000000005,5.000049991798719,0.003753214669504526,0.0014598672124538376,0
413,0.01652000000000009,5.000707572102282,-0.0005210531030302584,-0.002818487502239007,0
414,0.016559999999999908,4.99972120164681,0.004082004499051814,0.00178049654834188,0
415,0.016599999999999948,5.000049991798719,0.0024380553525874815,0.00013248725449795367,0
416,0.016639999999999988,4.99972120164681,0.004410794328726292,0.002101179500753337,0
417,0.016680000000000028,5.000049991798719,0.0014516858662357995,-0.0008619622608400648,0
418,0.016720000000000068,5.001036362253937,0.007369902801517392,0.0050522348193131235,0
419,0.016760000000000108,4.99972120164681,0.0007941062093044515,-0.0015275681709501516,0
420,0.016799999999999926,5.000049991798719,0.0024380553525874815,0.0001123880443736,0
421,0.016839999999999966,4.998734831190575,0.004082004499051814,0.0017523577458920673,0
422,0.016880000000000006,4.999392411494816,0.003424424840084442,0.0010908121378238496,0
423,0.016920000000000046,4.998734831190575,0.008356272294735026,0.0060187071519593625,0
424,0.016960000000000086,5.000378781950543,0.0030956350107915753,0.0007541309487364457,0
425,0.016999999999999904,5.000049991798719,0.006712323140007484,0.004366893692467262,0
426,0.017039999999999944,4.999392411494816,0.001780475694892425,-0.0005688655918708674,0
427,0.017079999999999984,4.99972120164681,-0.0008498429307955274,-0.0032030824981434808,0
428,0.017120000000000024,4.999063621342738,-0.0005210531030302584,-0.0028781773800393897,0
429,0.017160000000000064,5.000049991798719,0.0021092655236763236,-0.0002517298798768589,0
430,0.017200000000000104,4.999392411494816,0.0004653163810297567,-0.0018995365538482367,0
431,0.017239999999999922,4.999392411494816,0.004082004499051814,0.0017133076400787347,0
432,0.017279999999999962,5.003995473615012,0.004410794328726292,0.0020382671648066187,0
433,0.017320000000000002,4.9970908804284875,0.005397163818512657,0.0030208199806218148,0
434,0.017360000000000042,5.000049991798719,0.0024380553525874815,5.790848343591691e-05,0
435,0.017400000000000082,5.000049991798719,0.0014516858662357995,-0.0009322503798230315,0
436,0.0174399999999999,5.000049991798719,-0.001178632758433426,-0.003566344715495157,0
437,0.01747999999999994,5.000378781950543,-0.00019226327513760522,-0.0025837372658391424,0
438,0.01751999999999998,5.000049991798719,0.0014516858662357995,-0.0009435364693759834,0
439,0.01756000000000002,4.99972120164681,0.0004653163810297567,-0.0019336405994886032,0
440,0.01760000000000006,4.99972120164681,0.0027668451816259126,0.00036416726738628703,0
441,0.0176400000000001,4.99972120164681,0.006054743479005864,0.0036483583533193868,0
442,0.017679999999999918,4.999392411494816,0.009342641789095676,0.006932563185233225,0
443,0.017719999999999958,4.999392411494816,0.0007941062093044515,-0.001619652128559349,0
444,0.017759999999999998,5.000049991798719,0.00506837398845672,0.0026509496715771156,0
445,0.017800000000000038,5.000049991798719,0.004082004499051814,0.0016609279688600265,0
446,0.017840000000000078,5.000378781950543,0.0030956350107915753,0.0006709200436163312,0
447,0.017879999999999896,5.000378781950543,-0.0018362124133269458,-0.004264552030624836,0
448,0.017919999999999936,4.999392411494816,-0.00019226327513760522,-0.0026242137452583674,0
449,0.017959999999999976,4.99972120164681,0.004410794328726292,0.001975246813428232,0
450,0.018000000000000016,5.000378781950543,0.003753214669504526,0.0013140839269272942,0
451,0.018040000000000056,5.000049991798719,0.0030956350107915753,0.0006529348689924943,0
452,0.018080000000000096,4.99972120164681,0.0021092655236763236,-0.0003369901792214967,0
453,0.018119999999999914,5.000378781950543,0.00013652655288240445,-0.002313270863018738,0
454,0.018159999999999954,5.000049991798719,0.0014516858662357995,-0.0010016394046945005,0
455,0.018199999999999994,5.000049991798719,0.00013652655288240445,-0.0023203127053177536,0
456,0.018240000000000034,5.000378781950543,0.0007941062093044515,-0.001666233158714829,0
457,0.018280000000000074,4.99972120164681,0.0024380553525874815,-2.5770238202518954e-05,0
458,0.018320000000000114,4.99972120164681,0.00506837398845672,0.0026010760714482105,0
459,0.018359999999999932,4.999063621342738,0.005725953648695714,0.0032551973114307853,0
460,0.018399999999999972,5.000049991798719,0.004082004499051814,0.0016078036568084428,0
461,0.018440000000000012,5.000378781950543,0.0024380553525874815,-3.9576070134524424e-05,0
462,0.018480000000000052,5.000378781950543,-0.0008498429307955274,-0.003330891000368647,0
463,0.018520000000000092,4.999392411494816,-0.004466531027802631,-0.006950981801565812,0
464,0.01855999999999991,4.999392411494816,0.00013652655288240445,-0.002351312973470491,0
465,0.01859999999999995,5.000378781950543,0.003753214669504526,0.0012620003510072633,0
466,0.01863999999999999,5.000049991798719,0.001780475694892425,-0.0007140994465532303,0
467,0.01868000000000003,4.99972120164681,0.003753214669504526,0.001255292682962649,0
468,0.01872000000000007,5.000049991798719,0.00506837398845672,0.0025671191432325158,0
469,0.01876000000000011,5.000049991798719,0.00506837398845672,0.0025638002794312604,0
470,0.018799999999999928,4.99972120164681,0.00013652655288240445,-0.002371352016690664,0
471,0.018839999999999968,5.000049991798719,-0.002165002240582567,-0.004676171659171693,0
472,0.018880000000000008,5.000049991798719,-0.004466531027802631,-0.006980977275693063,0
473,0.018920000000000048,5.000378781950543,-0.00019226327513760522,-0.0027099723245261826,0
474,0.018960000000000088,4.99972120164681,0.0030956350107915753,0.000574677195701586,0
475,0.018999999999999906,4.99972120164681,0.004739584158527918,0.002215391621431921,0
476,0.019039999999999946,5.000049991798719,0.004410794328726292,0.0018833811211234125,0
477,0.019079999999999986,4.99972120164681,0.001780475694892425,-0.0007501441240094983,0
478,0.019120000000000026,5.000378781950543,0.001122896037706475,-0.0014109163256730006,0
479,0.019160000000000066,5.000049991798719,0.0007941062093044515,-0.0017428846242125307,0
480,0.019200000000000106,5.000378781950543,0.00013652655288240445,-0.0024036286690086502,0
481,0.019239999999999924,4.99972120164681,-0.0005210531030302584,-0.0030643586242037777,0
482,0.019279999999999964,5.000049991798719,0.003424424840084442,0.000877983115952967,0
483,0.019320000000000004,4.99972120164681,0.005725953648695714,0.0031763898250683803,0
484,0.019360000000000044,4.999392411494816,0.001122896037706475,-0.0014297757749123915,0
485,0.019400000000000084,5.000378781950543,0.0021092655236763236,-0.0004465001604829358,0
486,0.019439999999999902,5.000049991798719,-0.0015074225859438989,-0.004066268017341031,0
487,0.019479999999999942,5.000378781950543,0.0004653163810297567,-0.0020965946665468657,0
488,0.019519999999999982,4.999392411494816,0.001122896037706475,-0.0014420664883309283,0
489,0.019560000000000022,4.99972120164681,0.0014516858662357995,-0.0011163139939789346,0
490,0.019600000000000062,5.000049991798719,-0.0005210531030302584,-0.003092076146669758,0
491,0.019640000000000102,5.000378781950543,0.0021092655236763236,-0.0004647665462619412,0
492,0.01967999999999992,5.000049991798719,-0.0005210531030302584,-0.0030980800358635504,0
493,0.01971999999999996,5.000049991798719,-0.00019226327513760522,-0.0027722709012802044,0
494,0.01976,4.99972120164681,0.0007941062093044515,-0.001788867934475539,0
495,0.01980000000000004,4.99972120164681,0.0021092655236763236,-0.0004766609560787694,0
496,0.01984000000000008,5.000378781950543,0.00013652655288240445,-0.002452338075290994,0
497,0.019879999999999898,4.99972120164681,0.001780475694892425,-0.0008113128883438731,0
498,0.019919999999999938,5.000049991798719,0.001122896037706475,-0.001471802301534624,0
499,0.019959999999999978,4.999392411494816,0.0024380553525874815,-0.00015953853799359399,0
500,0.020000000000000018,5.000049991798719,0.001780475694892425,-0.000819999536853056,0
501,0.020040000000000058,5.000049991798719,0.0027668451816259126,0.00016350282430632745,0
502,0.020080000000000098,4.99972120164681,0.0021092655236763236,-0.0004969297383083807,0
503,0.020119999999999916,5.000049991798719,0.0014516858662357995,-0.0011573480742824334,0
504,0.020159999999999956,5.000049991798719,-0.001178632758433426,-0.003790491146227098,0
505,0.020199999999999996,5.000049991798719,0.0007941062093044515,-0.0018205623894762104,0
506,0.020240000000000036,5.000049991798719,-0.0028225818947114484,-0.005440046463256427,0
507,0.020280000000000076,5.000707572102282,-0.0005210531030302584,-0.003141299395278854,0
508,0.020319999999999894,4.99972120164681,0.0004653163810297567,-0.0021576973841199256,0
509,0.020359999999999934,5.000049991798719,0.0024380553525874815,-0.0001877116300151526,0
510,0.020399999999999974,4.99972120164681,0.001780475694892425,-0.0008480302451656682,0
511,0.020440000000000014,5.000049991798719,0.0030956350107915753,0.0004644043777286,0
512,0.020480000000000054,5.000049991798719,0.001780475694892425,-0.0008534653623680569,0
513,0.020520000000000094,5.000378781950543,0.0024380553525874815,-0.00019858185580264422,0
514,0.02055999999999991,5.000378781950543,0.00013652655288240445,-0.0025027925294053436,0
515,0.02059999999999995,5.000049991798719,-0.001178632758433426,-0.003820619433318969,0
516,0.02063999999999999,4.99972120164681,0.0014516858662357995,-0.001192954115976272,0
517,0.02068000000000003,5.000049991798719,0.0021092655236763236,-0.0005380134767159345,0
518,0.02072000000000007,5.000049991798719,0.001122896037706475,-0.0015270076879409329,0
519,0.02076000000000011,5.000049991798719,0.001122896037706475,-0.0015296181165887395,0
520,0.02079999999999993,5.000378781950543,0.0024380553525874815,-0.00021705493016229392,0
521,0.02083999999999997,4.999392411494816,-0.0008498429307955274,-0.003507535038317134,0
522,0.02088000000000001,4.999392411494816,-0.0005210531030302584,-0.0031813127282479207,0
523,0.02092000000000005,5.000378781950543,-0.00019226327513760522,-0.002855076107678948,0
524,0.02096000000000009,5.000049991798719,0.0024380553525874815,-0.0002272963737050284,0
525,0.020999999999999908,4.99972120164681,0.0007941062093044515,-0.001873770094063045,0
526,0.021039999999999948,5.000049991798719,0.0021092655236763236,-0.000561121037082802,0
527,0.021079999999999988,5.000378781950543,0.0007941062093044515,-0.0018787762862522584,0
528,0.021120000000000028,5.000049991798719,0.003424424840084442,0.0007490607351383718,0
529,0.021160000000000068,4.99972120164681,0.0030956350107915753,0.0004178036245820471,0
530,0.021200000000000108,5.000378781950543,-0.001178632758433426,-0.0038589170951593447,0
531,0.021239999999999926,5.000049991798719,0.001122896037706475,-0.0015598269162641204,0
532,0.021279999999999966,4.99972120164681,0.0014516858662357995,-0.0012334613692795999,0
533,0.021320000000000006,5.000049991798719,-0.00019226327513760522,-0.002879820454166295,0
534,0.021360000000000046,4.99972120164681,0.001780475694892425,-0.0009094770873829109,0
535,0.021400000000000086,4.99972120164681,0.005397163818512657,0.0027048297753959616,0
536,0.021439999999999904,5.000049991798719,0.003424424840084442,0.0007297238805738251,0
537,0.021479999999999944,5.000049991798719,0.004410794328726292,0.0017137407992148378,0
538,0.021519999999999984,5.000049991798719,0.0027668451816259126,6.74534303558667e-05,0
539,0.021560000000000024,5.000049991798719,0.00013652655288240445,-0.0025651890701513178,0
540,0.021600000000000064,4.99972120164681,-0.0005210531030302584,-0.0032250782461765524,0
541,0.021640000000000104,5.000378781950543,-0.001178632758433426,-0.00388495306848146,0
542,0.02167999999999992,5.000378781950543,-0.0015074225859438989,-0.004216023708219574,0
543,0.02171999999999996,4.99972120164681,0.0014516858662357995,-0.0012591817122266026,0
544,0.02176,5.000049991798719,0.004410794328726292,0.0016976746513884464,0
545,0.02180000000000004,5.000378781950543,0.0027668451816259126,5.148776389784105e-05,0
546,0.02184000000000008,5.000049991798719,0.0030956350107915753,0.0003780542122359936,0
547,0.0218799999999999,5.000049991798719,0.003424424840084442,0.0007046350212451585,0
548,0.02191999999999994,5.000049991798719,0.0030956350107915753,0.0003736505330970874,0
549,0.02195999999999998,5.000378781950543,0.006054743479005864,0.003330578704672962,0
550,0.02200000000000002,5.000049991798719,0.004739584158527918,0.0020132534504653174,0
551,0.02204000000000006,5.000049991798719,0.004410794328726292,0.0016823120504382565,0
552,0.0220800000000001,5.000378781950543,0.001780475694892425,-0.0009501437896175875,0
553,0.022119999999999918,4.99972120164681,0.0027668451816259126,3.4102855300227174e-05,0
554,0.022159999999999958,5.000049991798719,0.0024380553525874815,-0.00029679545084104926,0
555,0.022199999999999998,4.99972120164681,0.003753214669504526,0.0010162697538961863,0
556,0.022240000000000038,5.000378781950543,0.003753214669504526,0.0010141900067533348,0
557,0.022280000000000078,4.99972120164681,0.00506837398845672,0.0023272839436172736,0
558,0.022319999999999895,5.000378781950543,0.0004653163810297567,-0.002277824680921965,0
559,0.022359999999999935,5.000049991798719,0.0030956350107915753,0.000350457296528695,0
560,0.022399999999999975,5.000707572102282,0.0030956350107915753,0.00034843500874759403,0
561,0.022440000000000015,5.000049991798719,0.0030956350107915753,0.00034642708512930016,0
562,0.022480000000000055,5.000378781950543,0.0021092655236763236,-0.000641935961904845,0
563,0.022520000000000095,5.000378781950543,0.00506837398845672,0.002315193306096513,0
564,0.022559999999999913,4.99972120164681,0.006383533309443135,0.003628387792788096,0
565,0.022599999999999953,5.000378781950543,0.0030956350107915753,0.00033853902157417745,0
566,0.022639999999999993,4.99972120164681,-0.0005210531030302584,-0.0032800852039253517,0
567,0.022680000000000033,5.000049991798719,0.003753214669504526,0.000992260816872547,0
568,0.022720000000000073,5.000049991798719,0.0014516858662357995,-0.0013111753792321074,0
569,0.022760000000000113,5.000049991798719,0.001780475694892425,-0.0009842785856463126,0
570,0.02279999999999993,5.000049991798719,0.0030956350107915753,0.00032900205171529145,0
571,0.02283999999999997,5.000378781950543,0.003424424840084442,0.0006559275576761556,0
572,0.02288000000000001,5.000707572102282,0.003753214669504526,0.0009828674175461447,0
573,0.02292000000000005,5.000378781950543,0.0007941062093044515,-0.0019780766599416183,0
574,0.02296000000000009,5.000049991798719,-0.0028225818947114484,-0.005596586030598137,0
575,0.02299999999999991,5.000049991798719,0.0014516858662357995,-0.0013241251873555761,0
576,0.02303999999999995,5.000049991798719,0.0004653163810297567,-0.0023122872431372583,0
577,0.02307999999999999,5.000049991798719,0.007369902801517392,0.004590520952001175,0
578,0.02312000000000003,5.000049991798719,0.007369902801517392,0.004588757069880144,0
579,0.02316000000000007,5.000378781950543,0.0021092655236763236,-0.0006736297489476997,0
580,0.02320000000000011,4.99972120164681,0.003424424840084442,0.0006397943654183845,0
581,0.023239999999999927,5.000049991798719,0.005725953648695714,0.0029396023086473108,0
582,0.023279999999999967,4.99972120164681,0.006054743479005864,0.0032666856078542314,0
583,0.023320000000000007,5.000049991798719,0.0030956350107915753,0.0003058849403397804,0
584,0.023360000000000047,4.99972120164681,0.001780475694892425,-0.0010109522456279488,0
585,0.023400000000000087,4.99972120164681,0.003753214669504526,0.0009601231854802928,0
586,0.023439999999999905,4.99972120164681,0.0007941062093044515,-0.0020006344944211193,0
587,0.023479999999999945,4.99972120164681,0.0021092655236763236,-0.0006871100788055605,0
588,0.023519999999999985,5.000049991798719,0.006054743479005864,0.0032567472957599625,0
589,0.023560000000000025,5.000378781950543,0.005725953648695714,0.0029263511996301733,0
590,0.023600000000000065,4.99972120164681,0.004082004499051814,0.0012808100959679357,0
591,0.023640000000000105,5.000378781950543,0.0030956350107915753,0.0002928629622524718,0
592,0.023679999999999923,5.000049991798719,0.004082004499051814,0.0012776691102873504,0
593,0.023719999999999963,5.000707572102282,0.00506837398845672,0.0022624895612685116,0
594,0.023760000000000003,5.000049991798719,0.004739584158527918,0.0019321649911943736,0
595,0.023800000000000043,4.99972120164681,0.0027668451816259126,-4.209443119266524e-05,0
596,0.023840000000000083,5.000378781950543,0.004739584158527918,0.0019291383911716462,0
597,0.0238799999999999,5.000378781950543,0.003753214669504526,0.0009412770347501538,0
598,0.02391999999999994,5.000378781950543,0.004739584158527918,0.0019261689396125386,0
599,0.02395999999999998,5.000707572102282,0.004739584158527918,0.0019247056346914418,0
600,0.02400000000000002,5.000049991798719,0.00506837398845672,0.0022520464348472395,0
601,0.02404000000000006,5.000378781950543,0.004739584158527918,0.0019218218461071258,0
602,0.0240800000000001,5.000049991798719,0.005397163818512657,0.0025779810139613295,0
603,0.02411999999999992,5.000049991798719,0.004739584158527918,0.0019189951241514517,0
604,0.02415999999999996,4.99972120164681,0.00013652655288240445,-0.002685454453483587,0
605,0.0242,4.999392411494816,0.004082004499051814,0.0012586457739677758,0
606,0.02424000000000004,5.000049991798719,0.0030956350107915753,0.00027091281560257625,0
607,0.02428000000000008,4.99972120164681,0.003753214669504526,0.0009271432480710269,0
608,0.024319999999999897,4.99972120164681,0.005397163818512657,0.0025697574098483378,0
609,0.024359999999999937,5.000378781950543,0.004410794328726292,0.001582067166903955,0
610,0.024399999999999977,4.99972120164681,0.0030956350107915753,0.0002656013248491071,0
611,0.024440000000000017,5.000378781950543,0.0030956350107915753,0.00026430902463797255,0
612,0.024480000000000057,5.000049991798719,0.004082004499051814,0.001249400431373282,0
613,0.024520000000000097,4.99972120164681,0.001780475694892425,-0.0010533922409414597,0
614,0.024559999999999915,5.000378781950543,0.004410794328726292,0.0015756767326962234,0
615,0.024599999999999955,5.000049991798719,0.005725953648695714,0.002889600594924529,0
616,0.024639999999999995,4.99972120164681,0.006383533309443135,0.0035459589947881595,0
617,0.024680000000000035,4.999392411494816,0.003424424840084442,0.0005856434557116957,0
618,0.024720000000000075,5.000049991798719,0.0027668451816259126,-7.312908708340332e-05,0
619,0.024759999999999893,4.99972120164681,0.0004653163810297567,-0.0023758365925131714,0
620,0.024799999999999933,5.000049991798719,0.00506837398845672,0.002226056483611533,0
621,0.024839999999999973,5.000049991798719,0.006712323140007484,0.003868855271326509,0
622,0.024880000000000013,5.000049991798719,0.005725953648695714,0.002881349577487322,0
623,0.024920000000000053,5.000049991798719,0.006054743479005864,0.003209017360327172,0
624,0.024960000000000093,4.99972120164681,0.005397163818512657,0.002550329801076468,0
625,0.02499999999999991,5.000049991798719,0.006712323140007484,0.0038643953660892918,0
626,0.02503999999999995,5.000049991798719,0.004410794328726292,0.001561786934071371,0
627,0.02507999999999999,5.000049991798719,0.0030956350107915753,0.00024556212452213995,0
628,0.02512000000000003,5.000049991798719,0.00506837398845672,0.0022172497329791784,0
629,0.02516000000000007,4.999392411494816,0.006054743479005864,0.0032025819699181557,0
630,0.02520000000000011,5.001365152405508,0.007369902801517392,0.004516718147516396,0
631,0.02523999999999993,4.999392411494816,0.009342641789095676,0.006488448091884696,0
632,0.02527999999999997,5.001036362253937,0.006712323140007484,0.0038571344942038032,0
633,0.02532000000000001,5.000707572102282,0.0076986926324629085,0.0048425231255054355,0
634,0.02536000000000005,4.998077250885994,0.006383533309443135,0.0035263970215001416,0
635,0.02540000000000009,5.001036362253937,0.006054743479005864,0.00319665448288279,0
636,0.025439999999999907,4.99972120164681,0.0076986926324629085,0.004839664993510269,0
637,0.025479999999999947,5.002680313010939,0.010000221452637598,0.007140269228658991,0
638,0.025519999999999987,5.000707572102282,0.007041112970698912,0.004180250211859106,0
639,0.025560000000000027,4.99972120164681,0.006383533309443135,0.003521774058176232,0
640,0.025600000000000067,4.997748460733576,0.0076986926324629085,0.004836050923380632,0
641,0.025640000000000107,4.99972120164681,0.0014516858662357995,-0.0014118242739641364,0
642,0.025679999999999925,5.001693942556992,0.001122896037706475,-0.0017414685149189733,0
643,0.025719999999999965,4.99972120164681,0.003753214669504526,0.0008880097150487144,0
644,0.025760000000000005,4.99972120164681,0.008685062126061585,0.005819030772182205,0
645,0.025800000000000045,4.99972120164681,0.0076986926324629085,0.004831848873287125,0
646,0.025840000000000085,4.99972120164681,0.005397163818512657,0.002529521639796806,0
647,0.025879999999999903,4.99972120164681,0.003753214669504526,0.0008847880485429998,0
648,0.025919999999999943,5.000378781950543,0.00506837398845672,0.002199176893990958,0
649,0.025959999999999983,5.000049991798719,0.004739584158527918,0.001869630550655494,0
650,0.026000000000000023,4.99972120164681,0.005725953648695714,0.0028552574787795155,0
651,0.026040000000000063,5.000378781950543,0.00506837398845672,0.002196949199034223,0
652,0.026080000000000103,4.99972120164681,0.0030956350107915753,0.00022349553548421273,0
653,0.02611999999999992,5.000049991798719,0.005397163818512657,0.002524323581935291,0
654,0.02615999999999996,5.000049991798719,0.004739584158527918,0.0018660570761984123,0
655,0.0262,4.99972120164681,0.0027668451816259126,-0.00010735484012520426,0
656,0.02624000000000004,4.99972120164681,0.003424424840084442,0.0005495657759646659,0
657,0.02628000000000008,5.000378781950543,0.00506837398845672,0.002192869769653535,0
658,0.0263199999999999,5.000049991798719,0.0030956350107915753,0.0002194995155324988,0
659,0.02635999999999994,5.000049991798719,0.004739584158527918,0.0018628312554928087,0
660,0.02639999999999998,4.99972120164681,0.004082004499051814,0.0012046480472830638,0
661,0.02644000000000002,5.000049991798719,0.006383533309443135,0.003505587158255952,0
662,0.02648000000000006,4.99972120164681,0.003424424840084442,0.000545902828977258,0
663,0.0265200000000001,5.000049991798719,0.005397163818512657,0.0025180797770776218,0
664,0.026559999999999917,5.000049991798719,0.007041112970698912,0.004161480718532513,0
665,0.026599999999999957,5.000378781950543,0.005725953648695714,0.0028457869953094884,0
666,0.026639999999999997,5.000049991798719,0.00506837398845672,0.0021876867331880783,0
667,0.026680000000000037,5.000378781950543,0.006054743479005864,0.003173549410929024,0
668,0.026720000000000077,5.000049991798719,0.009013851957515154,0.00613216485535219,0
669,0.026759999999999895,5.000707572102282,0.005725953648695714,0.002843787280727712,0
670,0.026799999999999935,4.99972120164681,0.006054743479005864,0.003172111602984175,0
671,0.026839999999999975,4.999392411494816,0.008685062126061585,0.005801978489119208,0
672,0.026880000000000015,5.000378781950543,0.005397163818512657,0.00251364215707573,0
673,0.026920000000000055,4.999392411494816,0.005725953648695714,0.0028420076883951,0
674,0.026960000000000095,4.99972120164681,0.0024380553525874815,-0.00044630119182951155,0
675,0.026999999999999913,5.000049991798719,0.0024380553525874815,-0.0004466980721703202,0
676,0.027039999999999953,5.000049991798719,0.0021092655236763236,-0.0007758710887065053,0
677,0.027079999999999993,4.999392411494816,0.0021092655236763236,-0.0007762405947634851,0
678,0.027120000000000033,5.000049991798719,0.006054743479005864,0.003168881524841562,0
679,0.027160000000000073,5.000049991798719,0.005725953648695714,0.002839749517816142,0
680,0.027200000000000113,5.000049991798719,0.01032901128459894,0.0074424786246024555,0
681,0.02723999999999993,5.000707572102282,0.01032901128459894,0.007442163731585563,0
682,0.02727999999999997,5.000049991798719,0.009671431620803153,0.006784282799287196,0
683,0.02732000000000001,5.000049991798719,0.006712323140007484,0.003824886662830306,0
684,0.02736000000000005,5.000049991798719,0.004410794328726292,0.0015230837969691536,0
685,0.02740000000000009,5.000378781950543,0.004410794328726292,0.0015228233316233507,0
686,0.02743999999999991,4.99972120164681,0.005397163818512657,0.002508945933364073,0
687,0.02747999999999995,4.999392411494816,0.006383533309443135,0.003495082101528296,0
688,0.02751999999999999,5.000378781950543,0.007369902801517392,0.004481231824008263,0
689,0.02756000000000003,5.000378781950543,0.005725953648695714,0.002837076442570315,0
690,0.02760000000000007,5.000049991798719,0.005725953648695714,0.002836883742651712,0
691,0.02764000000000011,5.000049991798719,0.007369902801517392,0.004480653711885831,0
692,0.027679999999999927,5.000049991798719,0.006712323140007484,0.0038229083706666353,0
693,0.027719999999999967,5.000378781950543,0.007369902801517392,0.0044803358438067235,0
694,0.027760000000000007,4.99972120164681,0.005725953648695714,0.0028362479813300043,0
695,0.027800000000000047,5.000378781950543,0.006054743479005864,0.0031649125679894204,0
696,0.027840000000000087,4.99972120164681,0.005397163818512657,0.0025072211170536884,0
697,0.027879999999999905,5.000049991798719,0.009013851957515154,0.006123810905940269,0
698,0.027919999999999945,5.000049991798719,0.007369902801517392,0.004479776827186241,0
699,0.027959999999999985,4.999392411494816,0.006054743479005864,0.0031645459962258878,0
700,0.028000000000000025,4.99972120164681,0.008027482463535476,0.005137226873476796,0
701,0.028040000000000065,4.99972120164681,0.005397163818512657,0.0025068635091231146,0
702,0.028080000000000105,5.000378781950543,0.005397163818512657,0.002506832164432973,0
703,0.028119999999999923,5.000378781950543,0.006712323140007484,0.0038219735024865712,0
704,0.028159999999999963,4.99972120164681,0.008027482463535476,0.005137128190345884,0
705,0.028200000000000003,4.99972120164681,0.011315380781244458,0.008425035206597944,0
706,0.028240000000000043,5.000378781950543,0.005725953648695714,0.0028356300931589753,0
707,0.028280000000000083,5.000378781950543,0.007369902801517392,0.004479614571927903,0
708,0.0283199999999999,5.000707572102282,0.003753214669504526,0.0008629750588865558,0
709,0.02835999999999994,5.000378781950543,0.00506837398845672,0.00217819627593744,0
710,0.02839999999999998,5.000049991798719,0.001780475694892425,-0.001109626854381809,0
711,0.02844000000000002,5.000378781950543,0.004082004499051814,0.0011919903641045564,0
712,0.02848000000000006,4.998734831190575,0.006383533309443135,0.0034936208257568997,0
713,0.0285200000000001,5.000049991798719,0.006054743479005864,0.0031649458692834865,0
714,0.02855999999999992,4.99972120164681,0.0076986926324629085,0.004809023105092817,0
715,0.02859999999999996,4.99972120164681,0.008027482463535476,0.005137954212508655,0
716,0.02864,4.999392411494816,0.005725953648695714,0.002836579853522778,0
717,0.02868000000000004,5.000049991798719,0.003424424840084442,0.000535218665712866,0
718,0.02872000000000008,5.000378781950543,0.007369902801517392,0.004480877398248869,0
719,0.028759999999999897,4.99972120164681,0.00506837398845672,0.0021795424918646775,0
720,0.028799999999999937,4.99972120164681,0.005725953648695714,0.0028373291795429274,0
721,0.028839999999999977,5.000049991798719,0.003424424840084442,0.0005360205042408282,0
722,0.028880000000000017,4.99972120164681,0.004082004499051814,0.0011938333874123434,0
723,0.028920000000000057,5.000049991798719,0.005397163818512657,0.0025092390069154273,0
724,0.028960000000000097,4.99972120164681,0.004410794328726292,0.0015231288778707573,0
725,0.028999999999999915,4.99972120164681,0.005725953648695714,0.0028385606040610455,0
726,0.029039999999999955,5.000378781950543,0.0030956350107915753,0.0002085274025551754,0
727,0.029079999999999995,4.999392411494816,0.004739584158527918,0.0018527750014840695,0
728,0.029120000000000035,5.000049991798719,0.0027668451816259126,-0.00011965252489540713,0
729,0.029160000000000075,5.000378781950543,0.003753214669504526,0.000867041397290351,0
730,0.029200000000000115,5.000049991798719,0.003424424840084442,0.0005385889703357913,0
731,0.029239999999999933,4.99972120164681,0.003753214669504526,0.0008677291546728015,0
732,0.029279999999999973,4.99972120164681,0.007041112970698912,0.004155990747447955,0
733,0.029320000000000013,4.99972120164681,0.005725953648695714,0.0028412076378213726,0
734,0.029360000000000053,4.999392411494816,0.004082004499051814,0.0011976476054016492,0
735,0.029400000000000093,4.99972120164681,0.0021092655236763236,-0.0007746893639305292,0
736,0.02943999999999991,5.000049991798719,0.004410794328726292,0.0015272543198734821,0
737,0.02947999999999995,5.000049991798719,0.007041112970698912,0.004158000697122665,0
738,0.02951999999999999,4.99972120164681,0.006054743479005864,0.00317207178096082,0
739,0.02956000000000003,5.000049991798719,0.005397163818512657,0.002514945519906062,0
740,0.02960000000000007,5.000049991798719,0.006383533309443135,0.0035017812177554767,0
741,0.02964000000000011,5.000378781950543,0.006054743479005864,0.0031734703852116723,0
742,0.02967999999999993,5.000049991798719,0.00506837398845672,0.0021875926669455096,0
743,0.02971999999999997,5.000049991798719,0.004082004499051814,0.0012017277075491901,0
744,0.02976000000000001,5.000378781950543,0.0024380553525874815,-0.0004417041679235915,0
745,0.02980000000000005,5.000049991798719,0.0014516858662357995,-0.0014275436591219795,0
746,0.02984000000000009,4.99972120164681,0.004082004499051814,0.0012033176761094347,0
747,0.029879999999999907,5.000049991798719,0.005397163818512657,0.0025190323882699006,0
748,0.029919999999999947,5.000049991798719,0.008027482463535476,0.005149919099220588,0
749,0.029959999999999987,4.99972120164681,0.008356272294735026,0.005479289652442345,0
750,0.030000000000000027,4.999392411494816,0.006054743479005864,0.0031783541976180612,0
751,0.030040000000000067,5.000378781950543,0.003753214669504526,0.0008774313706149998,0
752,0.030080000000000107,5.000049991798719,0.004082004499051814,0.001206839786887255,0
753,0.030119999999999925,4.99972120164681,0.004739584158527918,0.0018650506198710348,0
754,0.030159999999999965,5.000049991798719,0.004410794328726292,0.0015369045328387071,0
755,0.030200000000000005,5.000049991798719,0.0030956350107915753,0.00022240150933688961,0
756,0.030240000000000045,5.000378781950543,0.005725953648695714,0.0028533889756627365,0
757,0.030280000000000085,5.000049991798719,0.00506837398845672,0.002196490660082883,0
758,0.030319999999999903,5.000049991798719,0.004739584158527918,0.0018683946732228457,0
759,0.030359999999999943,5.000049991798719,0.0027668451816259126,-0.0001036379801048282,0
760,0.030399999999999983,5.000049991798719,0.0027668451816259126,-0.00010291919400508233,0
761,0.030440000000000023,5.000049991798719,0.004739584158527918,0.0018705510134660254,0
762,0.030480000000000063,5.000049991798719,0.0076986926324629085,0.004830403144307675,0
763,0.030520000000000103,5.000049991798719,0.006712323140007484,0.0038447897168891005,0
764,0.03055999999999992,5.000049991798719,0.0024380553525874815,-0.0004287096156466337,0
765,0.03059999999999996,4.99972120164681,0.004082004499051814,0.0012160203571913823,0
766,0.03064,4.99972120164681,0.0021092655236763236,-0.0007559254387540524,0
767,0.03068000000000004,5.000049991798719,0.0021092655236763236,-0.0007551199247755537,0
768,0.03072000000000008,5.000049991798719,0.003753214669504526,0.0008896470509969672,0
769,0.0307599999999999,5.000049991798719,0.004410794328726292,0.0015480568374717262,0
770,0.03079999999999994,4.99972120164681,0.00506837398845672,0.0022064789030323256,0
771,0.03083999999999998,4.99972120164681,0.004082004499051814,0.0012209640792290968,0
772,0.03088000000000002,5.000049991798719,0.0030956350107915753,0.0002354614974623727,0
773,0.03092000000000006,4.99972120164681,0.004082004499051814,0.001222710114154471,0
774,0.0309600000000001,4.99972120164681,0.001122896037706475,-0.0017355070158477925,0
775,0.030999999999999917,4.99972120164681,0.0007941062093044515,-0.002063393329096129,0
776,0.031039999999999957,5.000378781950543,0.0030956350107915753,0.000239051152181416,0
777,0.031079999999999997,5.000049991798719,0.00013652655288240445,-0.0027191294805475686,0
778,0.031120000000000037,5.000049991798719,0.003753214669504526,0.0008984985873246008,0
779,0.031160000000000077,4.99972120164681,0.0014516858662357995,-0.001402078158016838,0
780,0.031199999999999894,5.000049991798719,0.0030956350107915753,0.0002428351316782699,0
781,0.031239999999999934,5.000049991798719,0.004410794328726292,0.001558970662426806,0
782,0.031279999999999974,4.99972120164681,0.003424424840084442,0.0005735894346635022,0
783,0.031320000000000014,5.000378781950543,0.006383533309443135,0.0035336981932836855,0
784,0.031360000000000054,4.99972120164681,0.004082004499051814,0.0012331816807831914,0
785,0.031400000000000095,4.999392411494816,0.003424424840084442,0.0005766263085107159,0
786,0.03143999999999991,4.999392411494816,0.001122896037706475,-0.0017238662382649981,0
787,0.03147999999999995,5.000049991798719,0.004082004499051814,0.0012362904276219584,0
788,0.03151999999999999,5.000049991798719,0.0014516858662357995,-0.0013929680717521356,0
789,0.03156000000000003,5.000049991798719,0.003424424840084442,0.0005808429443287587,0
790,0.03160000000000007,5.000049991798719,0.003753214669504526,0.0009107167045907543,0
791,0.03164000000000011,5.000049991798719,0.0027668451816259126,-7.455698408749415e-05,0
792,0.03167999999999993,5.000378781950543,0.003753214669504526,0.0009129201510283875,0
793,0.03171999999999997,5.000378781950543,0.0021092655236763236,-0.0007299095199173387,0
794,0.03176000000000001,5.000378781950543,0.00013652655288240445,-0.0027015172086452452,0
795,0.03180000000000005,5.000049991798719,0.003424424840084442,0.0005875241472748948,0
796,0.03184000000000009,5.000049991798719,0.0004653163810297567,-0.002370429477010617,0
797,0.03187999999999991,4.99972120164681,0.001122896037706475,-0.0017116832401840834,0
798,0.03191999999999995,5.000049991798719,0.003753214669504526,0.0009198136964048112,0
799,0.03195999999999999,5.000378781950543,0.003753214669504526,0.0009210037050280653,0
800,0.03200000000000003,5.000049991798719,0.001122896037706475,-0.0017081132351917515,0
801,0.03204000000000007,5.000378781950543,0.0030956350107915753,0.00026583909148051124,0
802,0.03208000000000011,4.99972120164681,0.0030956350107915753,0.00026706408606214094,0
803,0.032119999999999926,4.999392411494816,0.001780475694892425,-0.0010468586153436089,0
804,0.032159999999999966,5.000378781950543,0.0007941062093044515,-0.0020319798876771485,0
805,0.032200000000000006,5.000049991798719,0.0027668451816259126,-5.7981124558804595e-05,0
806,0.032240000000000046,5.001036362253937,0.003424424840084442,0.0006008698809528229,0
807,0.032280000000000086,5.000049991798719,0.00506837398845672,0.002246101911280718,0
808,0.032319999999999904,5.000049991798719,-0.0008498429307955274,-0.00367082061253436,0
809,0.032359999999999944,5.000049991798719,-0.001178632758433426,-0.003998304552741587,0
810,0.032399999999999984,4.99972120164681,0.00013652655288240445,-0.0026818278835564957,0
811,0.032440000000000024,4.99972120164681,0.004082004499051814,0.0012649788692991677,0
812,0.032480000000000064,5.000049991798719,0.001122896037706475,-0.0016927893582309944,0
813,0.032520000000000104,5.000049991798719,0.003753214669504526,0.0009388809127567795,0
814,0.03255999999999992,5.000378781950543,0.0027668451816259126,-4.612555237801827e-05,0
815,0.03259999999999996,4.99972120164681,0.001780475694892425,-0.0010311206546999548,0
816,0.03264,5.000049991798719,0.0014516858662357995,-0.0013585247592293416,0
817,0.03268000000000004,5.000378781950543,-0.0024937920677107622,-0.0053026056513505206,0
818,0.03272000000000008,4.99972120164681,0.00013652655288240445,-0.0026708786933166712,0
819,0.0327599999999999,5.000049991798719,0.001780475694892425,-0.001025509940398595,0
820,0.03279999999999994,5.000378781950543,0.003753214669504526,0.0009486598963761167,0
821,0.03283999999999998,4.999392411494816,0.003753214669504526,0.0009501019875157856,0
822,0.03288000000000002,5.000378781950543,0.0007941062093044515,-0.002007553174909534,0
823,0.03292000000000006,5.000378781950543,0.001122896037706475,-0.0016772988645039183,0
824,0.0329600000000001,4.99972120164681,-0.0018362124133269458,-0.0046349316717752154,0
825,0.03299999999999992,5.000378781950543,-0.0018362124133269458,-0.004633444888788731,0
826,0.03303999999999996,4.99972120164681,0.00013652655288240445,-0.002659208022966361,0
827,0.03308,4.99972120164681,-0.0005210531030302584,-0.003315278685300755,0
828,0.03312000000000004,5.000378781950543,0.0004653163810297567,-0.002327389136421784,0
829,0.03316000000000008,4.99972120164681,0.001780475694892425,-0.0010106987092870906,0
830,0.033199999999999896,5.000049991798719,0.0004653163810297567,-0.002324315884275138,0
831,0.033239999999999936,5.000378781950543,0.0007941062093044515,-0.0019939729144363566,0
832,0.033279999999999976,5.000378781950543,-0.0008498429307955274,-0.003636357933258348,0
833,0.033320000000000016,4.99972120164681,-0.0008498429307955274,-0.00363478285530426,0
834,0.033360000000000056,4.99972120164681,-0.0005210531030302584,-0.0033044070160086303,0
835,0.033400000000000096,4.99972120164681,-0.0024937920677107622,-0.005275549058744143,0
836,0.033439999999999914,5.000049991798719,-0.00019226327513760522,-0.0029724124570346152,0
837,0.033479999999999954,5.000378781950543,0.003753214669504526,0.000974684160650638,0
838,0.033519999999999994,5.000049991798719,-0.0018362124133269458,-0.004613113408576754,0
839,0.033560000000000034,5.000049991798719,0.0007941062093044515,-0.0019811544551871004,0
840,0.033600000000000074,5.001036362253937,-0.005452900506126915,-0.008226510046173537,0
841,0.033640000000000114,4.999063621342738,-0.002165002240582567,-0.004936949886025643,0
842,0.03367999999999993,5.000378781950543,-0.0024937920677107622,-0.005264067071980011,0
843,0.03371999999999997,5.001036362253937,0.005725953648695714,0.0029573620085221173,0
844,0.03376000000000001,4.997748460733576,-0.002165002240582567,-0.00493189981744701,0
845,0.03380000000000005,5.002022732708393,-0.00019226327513760522,-0.002957456113247428,0
846,0.03384000000000009,4.99972120164681,-0.0018362124133269458,-0.004599689861064146,0
847,0.03387999999999991,5.000707572102282,-0.0008498429307955274,-0.00361159436042881,0
848,0.03391999999999995,5.001036362253937,-0.0018362124133269458,-0.004596227221070737,0
849,0.03395999999999999,5.000049991798719,-0.0005210531030302584,-0.003279320709103501,0
850,0.03400000000000003,4.999392411494816,0.0007941062093044515,-0.0019624036393802806,0
851,0.03404000000000007,5.000378781950543,-0.002165002240582567,-0.0049197438002822795,0
852,0.03408000000000011,4.999063621342738,-0.00019226327513760522,-0.0029452260384353985,0
853,0.03411999999999993,5.000378781950543,-0.0031513717215847087,-0.005902545205301205,0
854,0.03415999999999997,5.000049991798719,-0.001178632758433426,-0.003928006503684482,0
855,0.03420000000000001,5.000707572102282,-0.002165002240582567,-0.004912565812836736,0
856,0.03424000000000005,5.000378781950543,-0.0024937920677107622,-0.005239535056846553,0
857,0.03428000000000009,4.99972120164681,-0.002165002240582567,-0.004908914260945457,0
858,0.034319999999999906,4.99972120164681,0.0014516858662357995,-0.0012903848242234416,0
859,0.034359999999999946,5.000378781950543,0.0021092655236763236,-0.0006309535003288561,0
860,0.034399999999999986,5.000707572102282,-0.0024937920677107622,-0.005232149113348164,0
861,0.034440000000000026,5.000049991798719,0.003424424840084442,0.0006879400600356958,0
862,0.034480000000000066,5.000049991798719,-0.0015074225859438989,-0.004242024837931829,0
863,0.034520000000000106,5.000049991798719,-0.005124110680146385,-0.007856820166405768,0
864,0.034559999999999924,5.000378781950543,-0.00348016154833046,-0.006210968056053445,0
865,0.034599999999999964,5.000707572102282,-0.0031513717215847087,-0.005880265062878544,0
866,0.034640000000000004,4.99972120164681,-0.001178632758433426,-0.0039056027703754824,0
867,0.034680000000000044,5.000378781950543,-0.0005210531030302584,-0.0032460896477228096,0
868,0.034720000000000084,4.99972120164681,-0.0015074225859438989,-0.0042305155505686885,0
869,0.0347599999999999,4.99972120164681,0.0007941062093044515,-0.0019270330875681332,0
870,0.03479999999999994,5.000707572102282,-0.0005210531030302584,-0.0032402286696541103,0
871,0.03483999999999998,5.000378781950543,-0.0005210531030302584,-0.003238254902150655,0
872,0.03488000000000002,5.000049991798719,-0.0024937920677107622,-0.005209010087368434,0
873,0.03492000000000006,5.000049991798719,0.0007941062093044515,-0.0019191180442801063,0
874,0.0349600000000001,4.99972120164681,-0.0015074225859438989,-0.0042186431122470105,0
875,0.03499999999999992,5.000049991798719,-0.001178632758433426,-0.0038878396217017818,0
876,0.03503999999999996,4.99972120164681,-0.0018362124133269458,-0.004543395703314968,0
877,0.03508,4.99972120164681,-0.0005210531030302584,-0.0032262029350525927,0
878,0.03512000000000004,5.000049991798719,0.001122896037706475,-0.001580210477277301,0
879,0.03516000000000008,4.99972120164681,0.0007941062093044515,-0.0019069471552324053,0
880,0.0351999999999999,5.000049991798719,-0.00348016154833046,-0.006179151954728342,0
881,0.03523999999999994,5.000378781950543,-0.00019226327513760522,-0.002889180941472337,0
882,0.03527999999999998,5.000049991798719,0.0007941062093044515,-0.0019007289608621342,0
883,0.03532000000000002,5.000378781950543,0.0007941062093044515,-0.0018986367344592755,0
884,0.03536000000000006,5.000049991798719,-0.0018362124133269458,-0.004526853426374242,0
885,0.0354000000000001,4.999392411494816,-0.001178632758433426,-0.00386716216242249,0
886,0.035439999999999916,5.000049991798719,0.0014516858662357995,-0.0012347222763753832,0
887,0.035479999999999956,5.000049991798719,-0.004137741201439435,-0.0068220184564253845,0
888,0.035519999999999996,5.000049991798719,-0.0047953208540382625,-0.007477457621273857,0
889,0.035560000000000036,5.000049991798719,-0.003808951374948702,-0.006488938080480712,0
890,0.035600000000000076,5.000049991798719,-0.0018362124133269458,-0.004514039509423465,0
891,0.035639999999999894,4.99972120164681,-0.0024937920677107622,-0.005169450032910391,0
892,0.035679999999999934,4.99972120164681,-0.0024937920677107622,-0.005167271406871558,0
893,0.035719999999999974,4.99972120164681,-0.0005210531030302584,-0.0031923443473784435,0
894,0.035760000000000014,5.000049991798719,0.001122896037706475,-0.0015461976694719553,0
895,0.035800000000000054,5.000049991798719,-0.00019226327513760522,-0.0028591500292540176,0
896,0.035840000000000094,4.99972120164681,0.0007941062093044515,-0.0018705642023705649,0
897,0.03587999999999991,4.99972120164681,-0.0018362124133269458,-0.0044986571197418255,0
898,0.03591999999999995,5.000049991798719,-0.0018362124133269458,-0.004496422078271112,0
899,0.03595999999999999,4.99972120164681,-0.004137741201439435,-0.0067957065153577455,0
900,0.03600000000000003,5.000378781950543,-0.0031513717215847087,-0.005807083401624494,0
901,0.03604000000000007,4.99972120164681,0.0007941062093044515,-0.001859342580753381,0
902,0.03608000000000011,5.000378781950543,-0.0018362124133269458,-0.004487389084095154,0
903,0.03611999999999993,5.000378781950543,0.0024380553525874815,-0.00021083999642548769,0
904,0.03615999999999997,5.000378781950543,-0.001178632758433426,-0.0038252376101136232,0
905,0.03620000000000001,4.99972120164681,-0.00019226327513760522,-0.0028365684808414017,0
906,0.03624000000000005,5.000378781950543,-0.00019226327513760522,-0.0028342597132008287,0
907,0.03628000000000009,4.99972120164681,0.0004653163810297567,-0.0021743621947535024,0
908,0.03631999999999991,4.99972120164681,0.0021092655236763236,-0.000528086122257436,0
909,0.03635999999999995,5.000378781950543,0.00013652655288240445,-0.0024984891227470074,0
910,0.03639999999999999,4.99972120164681,-0.0005210531030302584,-0.003153723795059755,0
911,0.03644000000000003,5.000049991798719,0.003753214669504526,0.0011228979471668904,0
912,0.03648000000000007,5.000049991798719,-0.002165002240582567,-0.004792956034384098,0
913,0.03652000000000011,4.99972120164681,-0.00019226327513760522,-0.002817845208850365,0
914,0.036559999999999926,5.000049991798719,-0.0008498429307955274,-0.003473044100202003,0
915,0.036599999999999966,5.001036362253937,0.001780475694892425,-0.0008403358333687657,0
916,0.036640000000000006,5.000049991798719,0.00013652655288240445,-0.0024818864848161004,0
917,0.036680000000000046,4.999392411494816,0.0007941062093044515,-0.0018218995158784267,0
918,0.036720000000000086,5.000378781950543,0.001122896037706475,-0.0014906935805148883,0
919,0.036759999999999904,4.99972120164681,-0.00019226327513760522,-0.0028034280195009696,0
920,0.036799999999999944,4.99972120164681,0.001780475694892425,-0.0008282554363079671,0
921,0.036839999999999984,5.000049991798719,-0.0015074225859438989,-0.0041137113923096985,0
922,0.036880000000000024,5.000049991798719,-0.00348016154833046,-0.006083999345865013,0
923,0.036920000000000064,4.999392411494816,-0.002165002240582567,-0.004766380373005529,0
924,0.036960000000000104,5.000049991798719,-0.00019226327513760522,-0.0027911731139260232,0
925,0.03699999999999992,5.000049991798719,0.0024380553525874815,-0.0001583775918416689,0
926,0.03703999999999996,5.000049991798719,-0.0015074225859438989,-0.004101370063127873,0
927,0.03708,5.000049991798719,0.0030956350107915753,0.0005041815458595163,0
928,0.03712000000000004,4.99972120164681,0.001122896037706475,-0.0014660548978861624,0
929,0.03716000000000008,4.99972120164681,0.0014516858662357995,-0.0011347540508889879,0
930,0.0371999999999999,4.99972120164681,0.001122896037706475,-0.0014610243998206816,0
931,0.03723999999999994,4.99972120164681,0.0004653163810297567,-0.0021160761438079653,0
932,0.03727999999999998,4.99972120164681,0.001122896037706475,-0.0014559601694270636,0
933,0.03732000000000002,4.999392411494816,-0.0008498429307955274,-0.003426154443326015,0
934,0.03736000000000006,5.000378781950543,0.001122896037706475,-0.0014508624314765553,0
935,0.0374000000000001,4.99972120164681,0.0007941062093044515,-0.0017770908959794849,0
936,0.03743999999999992,5.000378781950543,0.0004653163810297567,-0.0021033110680342888,0
937,0.03747999999999996,5.000378781950543,-0.0015074225859438989,-0.004073472114735904,0
938,0.03752,4.99972120164681,-0.0024937920677107622,-0.005057255440484781,0
939,0.03756000000000004,5.000378781950543,0.0004653163810297567,-0.0020955526283238353,0
940,0.03760000000000008,4.99972120164681,0.00013652655288240445,-0.0024217399140288665,0
941,0.037639999999999896,5.000049991798719,-0.0008498429307955274,-0.0034054987046599284,0
942,0.037679999999999936,5.000049991798719,0.001780475694892425,-0.0007725612637744404,0
943,0.037719999999999976,5.000049991798719,0.001122896037706475,-0.0014275140121023447,0
944,0.037760000000000016,5.000378781950543,-0.00019226327513760522,-0.002740038350954054,0
945,0.037800000000000056,5.000049991798719,0.001780475694892425,-0.0007646563703592839,0
946,0.037840000000000096,5.000049991798719,0.0021092655236763236,-0.00043321552303573476,0
947,0.037879999999999914,5.000049991798719,0.0007941062093044515,-0.0017457158395257663,0
948,0.037919999999999954,5.000707572102282,0.001122896037706475,-0.0014142590625674306,0
949,0.037959999999999994,5.000049991798719,-0.0015074225859438989,-0.004041902815689478,0
950,0.038000000000000034,4.99972120164681,-0.00019226327513760522,-0.0027240607411197896,0
951,0.038040000000000074,4.999392411494816,0.0024380553525874815,-9.105148516740753e-05,0
952,0.038080000000000114,4.99972120164681,0.0004653163810297567,-0.0020610919928390663,0
953,0.03811999999999993,4.99972120164681,0.001780475694892425,-0.0007432264082704067,0
954,0.03815999999999997,5.000049991798719,0.0014516858662357995,-0.0010693021882734015,0
955,0.03820000000000001,5.000049991798719,-0.001178632758433426,-0.0036968990152468364,0
956,0.03824000000000005,4.99972120164681,-0.0031513717215847087,-0.005666908460598576,0
957,0.03828000000000009,4.99972120164681,-0.0024937920677107622,-0.005006591597792401,0
958,0.03831999999999991,5.000049991798719,-0.0018362124133269458,-0.004346267072347135,0
959,0.03835999999999995,4.99972120164681,-0.0015074225859438989,-0.004014724740809011,0
960,0.03839999999999999,5.000049991798719,-0.0018362124133269458,-0.004340754460010825,0
961,0.03844000000000003,5.000049991798719,0.001122896037706475,-0.0013788783258691078,0
962,0.03848000000000007,5.000378781950543,0.0027668451816259126,0.00026784604695524045,0
963,0.03852000000000011,4.99972120164681,0.001122896037706475,-0.0013733203514242212,0
964,0.03855999999999993,5.000049991798719,-0.0005210531030302584,-0.0030144792591783147,0
965,0.03859999999999997,4.99972120164681,-0.0015074225859438989,-0.0039980510508896335,0
966,0.03864000000000001,5.000049991798719,0.001122896037706475,-0.001364927307070557,0
967,0.03868000000000005,5.000378781950543,0.00013652655288240445,-0.0023484842720428918,0
968,0.03872000000000009,4.99972120164681,0.004410794328726292,0.0019286033940226158,0
969,0.038759999999999906,4.99972120164681,0.004410794328726292,0.0019314306252714566,0
970,0.038799999999999946,4.99972120164681,0.001122896037706475,-0.001353633122844236,0
971,0.038839999999999986,4.99972120164681,0.00013652655288240445,-0.002337160782509836,0
972,0.038880000000000026,5.000378781950543,-0.0015074225859438989,-0.003978260843352983,0
973,0.038920000000000066,4.99972120164681,-0.002165002240582567,-0.004632984196641942,0
974,0.038960000000000106,4.99972120164681,-0.0005210531030302584,-0.0029861715638597134,0
975,0.038999999999999924,5.000378781950543,0.0021092655236763236,-0.00035298227755728396,0
976,0.039039999999999964,4.999063621342738,0.0030956350107915753,0.0006362650039777751,0
977,0.039080000000000004,5.000378781950543,0.003424424840084442,0.0009679397329450251,0
978,0.039120000000000044,5.000378781950543,0.00013652655288240445,-0.002317066578924581,0
979,0.039160000000000084,4.99972120164681,-0.0008498429307955274,-0.003300537041235451,0
980,0.0391999999999999,4.99972120164681,0.0030956350107915753,0.0006478469381033143,0
981,0.03923999999999994,4.99972120164681,-0.0015074225859438989,-0.003952297634172265,0
982,0.03927999999999998,5.000049991798719,0.001780475694892425,-0.0006614793718702928,0
983,0.03932000000000002,5.000378781950543,0.0027668451816259126,0.00032781702360631156,0
984,0.03936000000000006,5.000049991798719,0.0027668451816259126,0.00033075082987304907,0
985,0.0394000000000001,5.000378781950543,0.001122896037706475,-0.001310257640035175,0
986,0.03943999999999992,5.000049991798719,0.001780475694892425,-0.0006497304708977074,0
987,0.03947999999999996,4.99972120164681,0.00013652655288240445,-0.0022907252928448304,0
988,0.03952,5.000378781950543,0.0021092655236763236,-0.00031502522373006185,0
989,0.03956000000000004,5.000049991798719,-0.0015074225859438989,-0.003928745486649133,0
990,0.03960000000000008,5.000049991798719,-0.00019226327513760522,-0.0026106116106630163,0
991,0.0396399999999999,5.000049991798719,0.001122896037706475,-0.0012924710440857662,0
992,0.03967999999999994,5.000049991798719,0.0027668451816259126,0.00035446601217142305,0
993,0.03971999999999998,5.000049991798719,0.0004653163810297567,-0.0019440682474543376,0
994,0.03976000000000002,5.000049991798719,0.0024380553525874815,3.167186371157236e-05,0
995,0.03980000000000006,4.99972120164681,-0.0008498429307955274,-0.003253218711442945,0
996,0.0398400000000001,5.000049991798719,0.001780475694892425,-0.0006198858389460681,0
997,0.039879999999999916,5.000049991798719,-0.00019226327513760522,-0.002589604053648708,0
998,0.039919999999999956,4.99972120164681,0.0007941062093044515,-0.0016002073354446128,0
999,0.039959999999999996,5.000707572102282,0.0004653163810297567,-0.001925963481627998,0
1000,0.040000000000000036,5.000049991798719,0.0024380553525874815,4.981559022362511e-05,0
1001,0.040040000000000076,5.000378781950543,0.003424424840084442,0.0010392315660693544,0
1002,0.040080000000000116,4.99972120164681,0.001780475694892425,-0.0006016647328875172,0
1003,0.040119999999999933,4.99972120164681,0.0014516858662357995,-0.0009273953876116317,0
1004,0.040159999999999973,4.99972120164681,0.0014516858662357995,-0.0009243299161910122,0
1005,0.040200000000000014,5.000049991798719,0.0027668451816259126,0.00039390113787860295,0
1006,0.040240000000000054,5.000378781950543,0.003424424840084442,0.00105455877202659,0
1007,0.040280000000000094,4.999392411494816,0.0030956350107915753,0.0007288531251647768,0
1008,0.04031999999999991,5.000049991798719,0.0007941062093044515,-0.0015695853174372298,0
1009,0.04035999999999995,4.99972120164681,0.0030956350107915753,0.000735039989082629,0
1010,0.04039999999999999,4.99972120164681,0.0024380553525874815,8.056295173380825e-05,0
1011,0.04044000000000003,5.000378781950543,0.0024380553525874815,8.367165806816464e-05,0
1012,0.04048000000000007,4.999392411494816,0.0030956350107915753,0.0007443660777241481,0
1013,0.04052000000000011,5.000049991798719,0.0021092655236763236,-0.00023888262320106686,0
1014,0.04055999999999993,5.000378781950543,0.0014516858662357995,-0.0008933355001103688,0
1015,0.04059999999999997,5.000378781950543,0.001780475694892425,-0.0005614129269956038,0
1016,0.04064000000000001,4.999392411494816,0.0030956350107915753,0.0007568850668572963,0
1017,0.04068000000000005,5.000378781950543,0.0014516858662357995,-0.0008839194966971968,0
1018,0.04072000000000009,5.000049991798719,0.004410794328726292,0.002078339419377531,0
1019,0.04075999999999991,5.000049991798719,0.0024380553525874815,0.00010875673892511532,0
1020,0.04079999999999995,4.99972120164681,0.001122896037706475,-0.0012032404686641,0
1021,0.04083999999999999,5.000049991798719,0.003424424840084442,0.0011014562220986006,0
1022,0.04088000000000003,5.000049991798719,0.0021092655236763236,-0.00021052945535971097,0
1023,0.04092000000000007,5.000378781950543,0.00506837398845672,0.002751758368392531,0
1024,0.04096000000000011,4.99972120164681,0.0021092655236763236,-0.00020416504795188603,0
1025,0.040999999999999925,5.000707572102282,0.00506837398845672,0.0027581341241560984,0
1026,0.041039999999999965,4.99972120164681,0.005397163818512657,0.0030901202898443794,0
1027,0.041080000000000005,4.99972120164681,0.0030956350107915753,0.0007917934154594891,0
1028,0.041120000000000045,4.99972120164681,0.001780475694892425,-0.0005201584000143139,0
1029,0.041160000000000085,4.99972120164681,0.003753214669504526,0.0014557936114841163,0
1030,0.0411999999999999,5.000049991798719,0.0007941062093044515,-0.0015000963060100244,0
1031,0.04123999999999994,5.000049991798719,0.0007941062093044515,-0.0014968722881388086,0
1032,0.04127999999999998,5.000049991798719,0.004739584158527918,0.0024518351234541734,0
1033,0.04132000000000002,5.000049991798719,0.007369902801517392,0.005085388642632089,0
1034,0.04136000000000006,4.99972120164681,0.003424424840084442,0.0011431509405149965,0
1035,0.0414000000000001,5.000707572102282,0.009342641789095676,0.0070646135012661215,0
1036,0.04143999999999992,5.000049991798719,0.009342641789095676,0.007067864434715104,0
1037,0.04147999999999996,4.99972120164681,0.00506837398845672,0.0027968528585079677,0
1038,0.04152,5.000378781950543,0.004410794328726292,0.002142534683454889,0
1039,0.04156000000000004,4.99972120164681,0.004082004499051814,0.0018170115679552283,0
1040,0.04160000000000008,5.000049991798719,0.0024380553525874815,0.00017633433440460925,0
1041,0.0416399999999999,4.99972120164681,0.006054743479005864,0.0037962995417067944,0
1042,0.04167999999999994,4.99972120164681,0.006383533309443135,0.004128371590219202,0
1043,0.04171999999999998,5.000049991798719,0.005397163818512657,0.003145289423766749,0
1044,0.04176000000000002,4.99972120164681,0.004739584158527918,0.0024910021638650673,0
1045,0.04180000000000006,5.000378781950543,0.0021092655236763236,-0.00013601902610542622,0
1046,0.0418400000000001,5.000707572102282,0.0004653163810297567,-0.0017766657098887116,0
1047,0.04187999999999992,4.998077250885994,0.0030956350107915753,0.0008569603618941084,0
1048,0.04191999999999996,5.001693942556992,0.001780475694892425,-0.0004548865596591045,0
1049,0.04196,4.999392411494816,0.0027668451816259126,0.0005348002429044043,0
1050,0.04200000000000004,4.999063621342738,0.004410794328726292,0.0021820715964702532,0
1051,0.04204000000000008,5.002351522859708,0.003753214669504526,0.0015278190034932557,0
1052,0.042079999999999895,4.997419670581074,0.006712323140007484,0.004490259369156872,0
1053,0.042119999999999935,5.000707572102282,0.0030956350107915753,0.0008769079331471356,0
1054,0.042159999999999975,4.999063621342738,0.003424424840084442,0.0012090392228145857,0
1055,0.042200000000000015,5.001036362253937,0.003753214669504526,0.0015411752488941315,0
1056,0.042240000000000055,5.001365152405508,0.003424424840084442,0.0012157363215286807,0
1057,0.042280000000000095,4.999392411494816,0.0007941062093044515,-0.001411226732697109,0
1058,0.04231999999999991,5.000707572102282,0.0030956350107915753,0.0008936622889425469,0
1059,0.04235999999999995,4.99972120164681,0.004082004499051814,0.0018833966100470648,0
1060,0.04239999999999999,5.000049991798719,0.007369902801517392,0.00517466432713699,0
1061,0.04244000000000003,4.99972120164681,0.007041112970698912,0.004849248461806434,0
1062,0.04248000000000007,5.000049991798719,0.003753214669504526,0.0015647286460424726,0
1063,0.04252000000000011,5.000049991798719,0.00506837398845672,0.0028832709394422127,0
1064,0.04255999999999993,5.000049991798719,0.006054743479005864,0.0038730278625266215,0
1065,0.04259999999999997,5.000049991798719,0.004410794328726292,0.002232470571936875,0
1066,0.04264000000000001,5.000049991798719,0.003753214669504526,0.0015782871686228443,0
1067,0.04268000000000005,5.000049991798719,0.0030956350107915753,0.0009241081310956546,0
1068,0.04272000000000009,4.99972120164681,0.004082004499051814,0.0019138825748768293,0
1069,0.04275999999999991,5.000049991798719,0.0021092655236763236,-5.544714158808991e-05,0
1070,0.04279999999999995,5.000049991798719,0.0027668451816259126,0.0006055460477137316,0
1071,0.04283999999999999,5.000049991798719,0.004739584158527918,0.002581702797459509,0
1072,0.04288000000000003,5.000049991798719,0.0076986926324629085,0.005544233254777809,0
1073,0.04292000000000007,5.000049991798719,0.0076986926324629085,0.005547659417747049,0
1074,0.04296000000000011,5.000378781950543,0.006383533309443135,0.0042359304063274775,0
1075,0.04299999999999993,5.000049991798719,0.00506837398845672,0.0029242055146161718,0
1076,0.04303999999999997,4.999392411494816,0.003753214669504526,0.0016124847116571195,0
1077,0.04308000000000001,4.999392411494816,0.006383533309443135,0.004246245923349474,0
1078,0.04312000000000005,4.99972120164681,0.004739584158527918,0.0026057433689908966,0
1079,0.04316000000000009,5.000378781950543,0.00506837398845672,0.0029379837893214935,0
1080,0.043199999999999905,5.000049991798719,0.005397163818512657,0.0032702281726668973,0
1081,0.043239999999999945,4.999392411494816,0.005725953648695714,0.003602476488070147,0
1082,0.043279999999999985,5.000049991798719,0.0024380553525874815,0.0003180405781566778,0
1083,0.043320000000000025,5.000049991798719,0.004739584158527918,0.0026230356403113466,0
1084,0.043360000000000065,4.99972120164681,0.003424424840084442,0.001311346417147823,0
1085,0.043400000000000105,5.000049991798719,0.004082004499051814,0.001972399979508715,0
1086,0.04343999999999992,4.99972120164681,0.005397163818512657,0.0032910369795263548,0
1087,0.04347999999999996,5.000378781950543,0.009342641789095676,0.007239996376881278,0
1088,0.04352,5.000049991798719,0.009342641789095676,0.007243481518922514,0
1089,0.04356000000000004,5.000049991798719,0.0024380553525874815,0.0003423839087817464,0
1090,0.04360000000000008,4.99972120164681,0.00506837398845672,0.002976195024404364,0
1091,0.0436399999999999,5.000378781950543,0.005397163818512657,0.003308480956662593,0
1092,0.04367999999999994,5.000049991798719,0.003753214669504526,0.0016680315013720632,0
1093,0.04371999999999998,4.99972120164681,0.0024380553525874815,0.00035637543875803286,0
1094,0.04376000000000002,4.99972120164681,0.006712323140007484,0.004634150010140537,0
1095,0.04380000000000006,5.000378781950543,0.006383533309443135,0.004308870462276502,0
1096,0.0438400000000001,4.99972120164681,0.008685062126061585,0.006613913029415901,0
1097,0.04387999999999992,4.99972120164681,0.007041112970698912,0.0049734810614824165,0
1098,0.04391999999999996,5.000049991798719,0.005397163818512657,0.003333052502726218,0
1099,0.04396,4.99972120164681,0.003753214669504526,0.0016926273222469435,0
1100,0.04400000000000004,5.000378781950543,0.006383533309443135,0.004326473274916707,0
1101,0.04404000000000008,5.000378781950543,0.004082004499051814,0.002028475090568183,0
1102,0.0440799999999999,5.000378781950543,0.003424424840084442,0.00137442934007067,0
1103,0.04411999999999994,5.000049991798719,0.0030956350107915753,0.001049176670796507,0
1104,0.04415999999999998,5.000049991798719,0.006383533309443135,0.004340615350144008,0
1105,0.04420000000000002,5.000378781950543,0.005725953648695714,0.0036865792599050555,0
1106,0.04424000000000006,4.99972120164681,0.006712323140007484,0.00467649548068025,0
1107,0.0442800000000001,4.99972120164681,0.007369902801517392,0.005337624999758401,0
1108,0.044319999999999915,5.000378781950543,0.004739584158527918,0.0027108593115995365,0
1109,0.044359999999999955,5.000049991798719,0.007369902801517392,0.005344733975847486,0
1110,0.044399999999999995,5.000378781950543,0.006383533309443135,0.004361923540633323,0
1111,0.044440000000000035,5.000049991798719,0.004410794328726292,0.00239274662156045,0
1112,0.044480000000000075,5.000707572102282,0.005397163818512657,0.0033826811469657003,0
1113,0.044520000000000115,5.000049991798719,0.004739584158527918,0.0027286694657748644,0
1114,0.04455999999999993,5.000049991798719,0.004410794328726292,0.0024034505271515786,0
1115,0.04459999999999997,5.000378781950543,0.0021092655236763236,0.00010549549488338963,0
1116,0.04464000000000001,5.000378781950543,0.007041112970698912,0.005040919565520037,0
1117,0.04468000000000005,5.000049991798719,0.003753214669504526,0.0017566007080109512,0
1118,0.04472000000000009,5.000049991798719,0.008027482463535476,0.006034450735047752,0
1119,0.04475999999999991,5.000378781950543,0.006383533309443135,0.004394086572541759,0
1120,0.04479999999999995,4.999392411494816,0.005397163818512657,0.0034113048010489455,0
1121,0.04483999999999999,5.000378781950543,0.0014516858662357995,-0.0005305827346569589,0
1122,0.04488000000000003,5.000378781950543,0.008356272294735026,0.006377596776839881,0
1123,0.04492000000000007,5.000378781950543,0.005397163818512657,0.003422084019346852,0
1124,0.04496000000000011,5.000049991798719,0.004739584158527918,0.0027681026831401535,0
1125,0.04499999999999993,5.000378781950543,0.003753214669504526,0.0017853340922726886,0
1126,0.04503999999999997,5.000049991798719,0.004739584158527918,0.0027753070231715457,0
1127,0.04508000000000001,4.99972120164681,0.0014516858662357995,-0.0005089853141711745,0
1128,0.04512000000000005,4.99972120164681,0.004410794328726292,0.002453731585710022,0
1129,0.04516000000000009,4.99972120164681,0.004082004499051814,0.0021285526452481957,0
1130,0.04519999999999991,4.99972120164681,0.005397163818512657,0.0034473252751377826,0
1131,0.04523999999999995,5.000049991798719,0.009013851957515154,0.007067629115193033,0
1132,0.04527999999999999,5.000049991798719,0.008027482463535476,0.006084877682312073,0
1133,0.04532000000000003,4.999392411494816,0.0030956350107915753,0.0011566506201490816,0
1134,0.04536000000000007,4.99972120164681,0.00506837398845672,0.0031330122873281024,0
1135,0.04540000000000011,5.000049991798719,0.003753214669504526,0.0018214779262883405,0
1136,0.045439999999999925,5.000378781950543,0.007369902801517392,0.00544179325409284,0
1137,0.045479999999999965,5.000049991798719,0.008027482463535476,0.006103002319277747,0
1138,0.045520000000000005,4.99972120164681,0.004082004499051814,0.00216115593484767,0
1139,0.045560000000000045,5.000049991798719,0.0024380553525874815,0.0005208405148511184,0
1140,0.045600000000000085,4.99972120164681,0.004410794328726292,0.0024972153334154616,0
1141,0.0456399999999999,5.000049991798719,0.004739584158527918,0.0028296430911603065,0
1142,0.04567999999999994,5.000049991798719,0.003424424840084442,0.0015181237557542965,0
1143,0.04571999999999998,5.000049991798719,0.00506837398845672,0.0031657149118517395,0
1144,0.04576000000000002,4.99972120164681,0.008027482463535476,0.006128467388953959,0
1145,0.04580000000000006,5.000049991798719,0.008027482463535476,0.006132113354903728,0
1146,0.0458400000000001,5.000378781950543,0.006712323140007484,0.004820601930897471,0
1147,0.04587999999999992,5.000049991798719,0.005725953648695714,0.0038378822423429833,0
1148,0.04591999999999996,5.000378781950543,0.003424424840084442,0.0015400051094062717,0
1149,0.04596,4.99972120164681,0.007369902801517392,0.0054891365891311895,0
1150,0.04600000000000004,5.000049991798719,0.005397163818512657,0.0035200529367546284,0
1151,0.04604000000000008,5.000378781950543,0.004082004499051814,0.0022085507299958534,0
1152,0.0460799999999999,5.000378781950543,0.004739584158527918,0.002869789254004772,0
1153,0.04611999999999994,5.000378781950543,0.009013851957515154,0.007147717639131838,0
1154,0.04615999999999998,4.99972120164681,0.007041112970698912,0.005178640929858382,0
1155,0.04620000000000002,4.99972120164681,0.004082004499051814,0.0022231963969728753,0
1156,0.04624000000000006,5.000378781950543,0.003424424840084442,0.0015692823078219266,0
1157,0.0462800000000001,5.000049991798719,0.006712323140007484,0.004860847778472685,0
1158,0.04631999999999992,5.000049991798719,0.004739584158527918,0.0028917775385092813,0
1159,0.04635999999999996,5.000378781950543,0.004410794328726292,0.0025666579909103342,0
1160,0.0464,4.999063621342738,0.0027668451816259126,0.0009263806366184124,0
1161,0.04644000000000004,4.99972120164681,0.003424424840084442,0.0015876335684318753,0
1162,0.04648000000000008,4.99972120164681,0.003753214669504526,0.0019200981217157625,0
1163,0.046519999999999895,5.000378781950543,0.006054743479005864,0.004225303075574102,0
1164,0.046559999999999935,5.000049991798719,0.008027482463535476,0.006201719594960435,0
1165,0.046599999999999975,4.99972120164681,0.0076986926324629085,0.005876608659273267,0
1166,0.046640000000000015,5.000049991798719,0.008027482463535476,0.006209078716311557,0
1167,0.046680000000000055,5.000049991798719,0.005397163818512657,0.003582441597909359,0
1168,0.046720000000000095,5.000378781950543,0.004410794328726292,0.0025997549054962727,0
1169,0.04675999999999991,5.000049991798719,0.004739584158527918,0.002932228773545031,0
1170,0.04679999999999995,5.000378781950543,0.0007941062093044515,-0.0010095639264125651,0
1171,0.04683999999999999,4.99972120164681,0.0007941062093044515,-0.0010058774959591555,0
1172,0.04688000000000003,5.000049991798719,0.004082004499051814,0.0022857083756221393,0
1173,0.04692000000000007,5.000378781950543,0.006054743479005864,0.004262136059008053,0
1174,0.04696000000000011,5.000049991798719,0.0076986926324629085,0.005909775007736964,0
1175,0.04699999999999993,5.000378781950543,0.006383533309443135,0.004598306542096045,0
1176,0.04703999999999997,5.000378781950543,0.007369902801517392,0.005588367923948288,0
1177,0.04708000000000001,5.000378781950543,0.005725953648695714,0.003948111663621282,0
1178,0.04712000000000005,5.000049991798719,0.0024380553525874815,0.0006639072330676043,0
1179,0.04716000000000009,5.000049991798719,0.0027668451816259126,0.00099639187108956,0
1180,0.04719999999999991,5.000378781950543,0.0014516858662357995,-0.0003150717214928182,0
1181,0.04723999999999995,4.99972120164681,0.0014516858662357995,-0.0003113751144392487,0
1182,0.04727999999999999,4.99972120164681,-0.0005210531030302584,-0.0022804166219576455,0
1183,0.04732000000000003,4.99972120164681,0.003424424840084442,0.0016687596080739331,0
1184,0.04736000000000007,5.000049991798719,0.003424424840084442,0.0016724586906622842,0
1185,0.04740000000000011,5.000049991798719,0.001122896037706475,-0.0006253702629262528,0
1186,0.04743999999999993,4.99972120164681,0.0021092655236763236,0.00036469980859130926,0
1187,0.04747999999999997,4.99972120164681,0.004739584158527918,0.0029987197363339573,0
1188,0.04752000000000001,5.000378781950543,0.0030956350107915753,0.0013584725594451535,0
1189,0.04756000000000005,4.99972120164681,0.003753214669504526,0.002019754837603584,0
1190,0.04760000000000009,4.99972120164681,0.005725953648695714,0.0039961970555082126,0
1191,0.047639999999999905,5.000049991798719,0.003424424840084442,0.0016983720755771605,0
1192,0.047679999999999945,5.000378781950543,0.003753214669504526,0.002030866294372086,0
1193,0.047719999999999985,4.999392411494816,0.004410794328726292,0.0026921508744204227,0
1194,0.047760000000000025,5.000049991798719,0.0024380553525874815,0.0007231173213465173,0
1195,0.047800000000000065,4.99972120164681,0.003424424840084442,0.001713192704963053,0
1196,0.047840000000000105,4.99972120164681,0.0014516858662357995,-0.0002558399288650203,0
1197,0.04787999999999992,4.99972120164681,0.00506837398845672,0.003364554948153992,0
1198,0.04791999999999996,4.99972120164681,0.0027668451816259126,0.0010667332818057988,0
1199,0.04796,5.000049991798719,0.005725953648695714,0.004029549245980411,0
1200,0.04800000000000004,5.000049991798719,0.0030956350107915753,0.0014029384327718932,0
1201,0.04804000000000008,5.000707572102282,0.0004653163810297567,-0.0012236720737037244,0
1202,0.0480799999999999,5.000049991798719,0.0014516858662357995,-0.00023359419558973262,0
1203,0.04811999999999994,5.000378781950543,0.0030956350107915753,0.0014140635825585545,0
1204,0.04815999999999998,5.000049991798719,0.0030956350107915753,0.0014177724279303174,0
1205,0.04820000000000002,5.000378781950543,0.0007941062093044515,-0.000880047345278996,0
1206,0.04824000000000006,4.99972120164681,0.0027668451816259126,0.001096400809385454,0
1207,0.0482800000000001,5.000049991798719,0.0007941062093044515,-0.0008726288553361223,0
1208,0.04831999999999992,5.000049991798719,0.004739584158527918,0.0030765584979686425,0
1209,0.04835999999999996,5.000378781950543,0.0030956350107915753,0.0014363188220525916,0
1210,0.0484,4.99972120164681,0.0014516858662357995,-0.00020392081165305142,0
1211,0.04844000000000004,5.000707572102282,0.0007941062093044515,-0.0008577909473800633,0
1212,0.04848000000000008,4.99972120164681,0.004410794328726292,0.002762606674958423,0
1213,0.0485199999999999,4.999392411494816,0.00013652655288240445,-0.001507951644864414,0
1214,0.04855999999999994,4.99972120164681,-0.00019226327513760522,-0.001833032092332679,0
1215,0.04859999999999998,5.000707572102282,0.0030956350107915753,0.0014585754701396858,0
1216,0.04864000000000002,5.000049991798719,0.0007941062093044515,-0.0008392441873173826,0
1217,0.04868000000000006,5.000378781950543,0.0024380553525874815,0.0008084139390129059,0
1218,0.0487200000000001,5.000049991798719,0.0021092655236763236,0.00048333290373169544,0
1219,0.048759999999999915,5.000049991798719,0.0021092655236763236,0.0004870414795451879,0
1220,0.048799999999999955,4.99972120164681,0.003424424840084442,0.0018059091255868023,0
1221,0.048839999999999995,5.000049991798719,0.0021092655236763236,0.000494457864304479,0
1222,0.048880000000000035,4.99972120164681,0.0027668451816259126,0.0011557452745805067,0
1223,0.048920000000000075,5.000378781950543,0.003753214669504526,0.002145822183730841,0
1224,0.048960000000000115,4.999392411494816,0.003753214669504526,0.0021495292457290017,0
1225,0.04899999999999993,5.000049991798719,0.003753214669504526,0.002153235920271502,0
1226,0.04903999999999997,5.000378781950543,0.0021092655236763236,0.0005129930333850112,0
1227,0.04908000000000001,4.99972120164681,0.006054743479005864,0.004462176803947542,0
1228,0.04912000000000005,4.99972120164681,0.004082004499051814,0.0024931431674472667,0
1229,0.04916000000000009,4.99972120164681,0.0027668451816259126,0.0011816886936630647,0
1230,0.04919999999999991,5.000378781950543,0.0024380553525874815,0.0008566031804592725,0
1231,0.04923999999999995,5.000378781950543,0.0027668451816259126,0.0011890967695683905,0
1232,0.04927999999999999,5.000378781950543,-0.0005210531030302584,-0.002095098338699622,0
1233,0.04932000000000003,4.99972120164681,0.005397163818512657,0.003826821147668876,0
1234,0.04936000000000007,5.000049991798719,-0.0008498429307955274,-0.0024164836762175616,0
1235,0.04940000000000011,5.000049991798719,0.0027668451816259126,0.0012039056944194886,0
1236,0.04943999999999993,4.99972120164681,0.0004653163810297567,-0.0010939225429302557,0
1237,0.04947999999999997,5.001036362253937,0.003424424840084442,0.0018688857566780037,0
1238,0.04952000000000001,5.000049991798719,-0.0005210531030302584,-0.002072893096259922,0
1239,0.04956000000000005,4.999392411494816,0.0014516858662357995,-9.645581483798784e-05,0
1240,0.04960000000000009,5.000049991798719,0.0007941062093044515,-0.000750337965238337,0
1241,0.049639999999999906,5.000049991798719,0.004739584158527918,0.0031988366573275904,0
1242,0.049679999999999946,5.000707572102282,0.00506837398845672,0.0035313222998872105,0
1243,0.049719999999999986,5.000049991798719,0.0030956350107915753,0.001562278246658895,0
1244,0.049760000000000026,4.99972120164681,0.00013652655288240445,-0.0013931362024487944,0
1245,0.049800000000000066,4.99972120164681,0.0014516858662357995,-7.428382332941053e-05,0
1246,0.049840000000000106,5.000049991798719,0.001780475694892425,0.0002581981006990091,0
1247,0.049879999999999924,4.99972120164681,0.0014516858662357995,-6.690063029706579e-05,0
1248,0.049919999999999964,4.99972120164681,0.001122896037706475,-0.0003920003861522626,0
1249,0.049960000000000004,4.99972120164681,0.0024380553525874815,0.0009268479491833587,0
1250,0.050000000000000044,5.000049991798719,0.003424424840084442,0.0019169053777246389,0
1251,0.050040000000000084,4.999392411494816,0.0007941062093044515,-0.0007097264185695858,0
1252,0.0500799999999999,4.99972120164681,0.00013652655288240445,-0.0013636203741699546,0
1253,0.05011999999999994,5.001036362253937,-0.0015074225859438989,-0.0030038849729012414,0
1254,0.05015999999999998,4.999063621342738,0.00013652655288240445,-0.0013562524817259949,0
1255,0.05020000000000002,5.000707572102282,-0.0008498429307955274,-0.0023389398277770764,0
1256,0.05024000000000006,4.99972120164681,0.001780475694892425,0.0002950596938832047,0
1257,0.0502800000000001,4.997748460733576,0.0021092655236763236,0.0006275291500963053,0
1258,0.05031999999999992,5.002022732708393,0.00506837398845672,0.0035903159469181864,0
1259,0.05035999999999996,4.999063621342738,0.001122896037706475,-0.0003514849939786394,0
1260,0.0504,5.000707572102282,-0.00348016154833046,-0.004950866919106129,0
1261,0.05044000000000004,5.000378781950543,-0.00019226327513760522,-0.001659294360659053,0
1262,0.05048000000000008,5.000049991798719,-0.0015074225859438989,-0.0029707807885327037,0
1263,0.0505199999999999,4.999063621342738,0.001780475694892425,0.0003207889462933931,0
1264,0.05055999999999994,4.999063621342738,0.0007941062093044515,-0.000661910540823662,0
1265,0.05059999999999998,5.000378781950543,0.001780475694892425,0.00032812746118588006,0
1266,0.05064000000000002,5.000378781950543,0.0004653163810297567,-0.0009833648447893453,0
1267,0.05068000000000006,5.001693942556992,0.00013652655288240445,-0.0013084892000222443,0
1268,0.0507200000000001,5.000049991798719,-0.0024937920677107622,-0.003935143909066679,0
1269,0.050759999999999916,5.000049991798719,-0.001178632758433426,-0.0026163222759527354,0
1270,0.050799999999999956,4.99972120164681,-0.001178632758433426,-0.0026126615661281037,0
1271,0.050839999999999996,5.000049991798719,-0.001178632758433426,-0.002609002496568551,0
1272,0.050880000000000036,4.99972120164681,-0.00019226327513760522,-0.0016189756101844016,0
1273,0.050920000000000076,5.000049991798719,-0.0008498429307955274,-0.0022728995553841927,0
1274,0.050960000000000116,4.999063621342738,0.0030956350107915753,0.0016762323779192336,0
1275,0.050999999999999934,5.000378781950543,0.001122896037706475,-0.0002928543482553755,0
1276,0.051039999999999974,5.000049991798719,-0.0008498429307955274,-0.002261942840668985,0
1277,0.051080000000000014,5.000049991798719,0.0024380553525874815,0.0010296041220120376,0
1278,0.051120000000000054,4.99972120164681,-0.00019226327513760522,-0.001597067649125498,0
1279,0.051160000000000094,5.000049991798719,-0.0005210531030302584,-0.0019222124690127683,0
1280,0.05119999999999991,5.000049991798719,0.001122896037706475,-0.00027462019467592615,0
1281,0.05123999999999995,4.99972120164681,-0.003808951374948702,-0.0052028263739105724,0
1282,0.05127999999999999,4.99972120164681,0.0004653163810297567,-0.000924919310416482,0
1283,0.05132000000000003,4.999392411494816,0.001780475694892425,0.00039387735938082257,0
1284,0.05136000000000007,5.000049991798719,0.001122896037706475,-0.0002600669190781886,0
1285,0.05140000000000011,5.000049991798719,-0.0008498429307955274,-0.002229172511638055,0
1286,0.05143999999999993,4.99972120164681,-0.0018362124133269458,-0.0032119106465394475,0
1287,0.05147999999999997,5.000378781950543,0.0004653163810297567,-0.0009067525583421362,0
1288,0.05152000000000001,5.000049991798719,-0.00019226327513760522,-0.0015607049998854114,0
1289,0.05156000000000005,5.000049991798719,-0.0015074225859438989,-0.002872239200660855,0
1290,0.05160000000000009,4.99972120164681,-0.0008498429307955274,-0.0022110365654009916,0
1291,0.05163999999999991,4.99972120164681,-0.0018362124133269458,-0.0031937852230156036,0
1292,0.05167999999999995,4.99972120164681,-0.0018362124133269458,-0.0031901665785178195,0
1293,0.05171999999999999,5.000049991798719,-0.0031513717215847087,-0.0045017094478699655,0
1294,0.05176000000000003,4.999392411494816,-0.0005210531030302584,-0.0018677766211238306,0
1295,0.05180000000000007,5.000378781950543,-0.0018362124133269458,-0.0031793239790129445,0
1296,0.05184000000000011,5.000049991798719,-0.0008498429307955274,-0.0021893448248764703,0
1297,0.051879999999999926,4.99972120164681,-0.00019226327513760522,-0.0015281578033824372,0
1298,0.051919999999999966,4.99972120164681,-0.0008498429307955274,-0.002182132423887451,0
1299,0.051960000000000006,5.000707572102282,0.0004653163810297567,-0.0008633704324543566,0
1300,0.052000000000000046,5.000378781950543,-0.001178632758433426,-0.00250371927266416,0
1301,0.052040000000000086,4.99972120164681,0.00013652655288240445,-0.0011849620672059699,0
1302,0.052079999999999904,4.99972120164681,0.0021092655236763236,0.0007913723679156474,0
1303,0.052119999999999944,5.000049991798719,-0.003808951374948702,-0.005123251520846849,0
1304,0.052159999999999984,5.000049991798719,-0.0047953208540382625,-0.006106030469136246,0
1305,0.052200000000000024,5.000049991798719,-0.004466531027802631,-0.005773652615706481,0
1306,0.052240000000000064,5.000378781950543,-0.0024937920677107622,-0.0037973281565164677,0
1307,0.052280000000000104,4.99972120164681,-0.0015074225859438989,-0.002807375728183502,0
1308,0.05231999999999992,4.99972120164681,-0.00019226327513760522,-0.0014886360477251125,0
1309,0.05235999999999996,4.99972120164681,0.0021092655236763236,0.0008164705194992255,0
1310,0.0524,5.000049991798719,-0.0018362124133269458,-0.003125432274608524,0
1311,0.05244000000000004,5.000049991798719,-0.0031513717215847087,-0.004437019089704206,0
1312,0.05248000000000008,4.999392411494816,-0.0018362124133269458,-0.003118289962181494,0
1313,0.0525199999999999,4.999392411494816,-0.002165002240582567,-0.0034435126681779445,0
1314,0.05255999999999994,4.99972120164681,-0.0005210531030302584,-0.0017959991314256767,0
1315,0.05259999999999998,4.99972120164681,-0.004466531027802631,-0.0057379154030553214,0
1316,0.05264000000000002,4.99972120164681,-0.0031513717215847087,-0.004419197213694348,0
1317,0.05268000000000006,5.000378781950543,-0.0015074225859438989,-0.0027716919887968328,0
1318,0.0527200000000001,4.99972120164681,-0.0018362124133269458,-0.0030969285446402406,0
1319,0.05275999999999992,5.000049991798719,-0.004137741201439435,-0.005394906902704752,0
1320,0.05279999999999996,4.999392411494816,-0.006110480157705198,-0.007364098294132475,0
1321,0.05284,5.000378781950543,-0.002165002240582567,-0.003415075701043529,0
1322,0.05288000000000004,4.999392411494816,-0.001178632758433426,-0.0024251644554048896,0
1323,0.05292000000000008,5.000049991798719,-0.0015074225859438989,-0.002750415455450925,0
1324,0.052959999999999896,5.000049991798719,-0.0008498429307955274,-0.0020892999323543888,0
1325,0.052999999999999936,5.000049991798719,-0.002165002240582567,-0.0034009263571435303,0
1326,0.053039999999999976,5.000378781950543,-0.0031513717215847087,-0.004383765959474648,0
1327,0.053080000000000016,5.000378781950543,-0.004137741201439435,-0.005366608590304258,0
1328,0.053120000000000056,5.000049991798719,-0.0031513717215847087,-0.004376715314331607,0
1329,0.053160000000000096,5.000049991798719,-0.0031513717215847087,-0.004373194594324221,0
1330,0.053199999999999914,4.999392411494816,-0.002165002240582567,-0.003383307492570469,0
1331,0.053239999999999954,4.99972120164681,0.0004653163810297567,-0.0007494743725492564,0
1332,0.053279999999999994,5.000049991798719,0.0004653163810297567,-0.0007459630195115561,0
1333,0.053320000000000034,5.000049991798719,-0.004137741201439435,-0.005345512417284065,0
1334,0.053360000000000074,4.99972120164681,-0.0005210531030302584,-0.001725319325430246,0
1335,0.053400000000000114,4.99972120164681,0.0004653163810297567,-0.0007354480620296348,0
1336,0.05343999999999993,4.99972120164681,-0.0031513717215847087,-0.0043486376222003804,0
1337,0.05347999999999997,5.000378781950543,-0.0005210531030302584,-0.0017148237208325745,0
1338,0.05352000000000001,4.99972120164681,-0.008412008934208556,-0.009602287551501821,0
1339,0.05356000000000005,5.000049991798719,-0.0031513717215847087,-0.004338161643287482,0
1340,0.05360000000000009,4.99972120164681,-0.003808951374948702,-0.004992255928533895,0
1341,0.05363999999999991,5.000049991798719,0.00013652655288240445,-0.0010432959825524349,0
1342,0.05367999999999995,5.000378781950543,-0.0005210531030302584,-0.0016973969927160507,0
1343,0.05371999999999999,4.99972120164681,-0.0015074225859438989,-0.002680291224655641,0
1344,0.05376000000000003,4.99972120164681,-0.0018362124133269458,-0.003005609218152755,0
1345,0.05380000000000007,4.99972120164681,-0.003808951374948702,-0.0049748797852290794,0
1346,0.05384000000000011,5.000049991798719,-0.003808951374948702,-0.00497141485221563,0
1347,0.05387999999999993,5.000049991798719,-0.00348016154833046,-0.0046391635762463215,0
1348,0.05391999999999997,4.99972120164681,-0.0018362124133269458,-0.00299175649762328,0
1349,0.05396000000000001,4.999392411494816,-0.0031513717215847087,-0.004303461390000787,0
1350,0.05400000000000005,4.99972120164681,-0.0015074225859438989,-0.002656061388165147,0
1351,0.05404000000000009,5.000049991798719,-0.0018362124133269458,-0.0029814039209231924,0
1352,0.054079999999999906,5.000049991798719,-0.001178632758433426,-0.0023203805647969904,0
1353,0.054119999999999946,5.000049991798719,-0.00348016154833046,-0.0046184692686140685,0
1354,0.054159999999999986,4.99972120164681,-0.005124110680146385,-0.006258981951200937,0
1355,0.054200000000000026,5.000049991798719,-0.0018362124133269458,-0.002967650893639106,0
1356,0.054240000000000066,5.000049991798719,-0.0018362124133269458,-0.002964221782956573,0
1357,0.054280000000000106,4.99972120164681,-0.0031513717215847087,-0.004275955682102138,0
1358,0.054319999999999924,4.99972120164681,-0.001178632758433426,-0.002299795032856579,0
1359,0.054359999999999964,5.000378781950543,-0.003808951374948702,-0.004926695707680022,0
1360,0.054400000000000004,5.000378781950543,-0.0024937920677107622,-0.0036081222244740124,0
1361,0.054440000000000044,5.000049991798719,-0.0028225818947114484,-0.003933501662488325,0
