,seconds,Trig,EMG_amplitude,EMG_amplitude_filter,peaks
0,0.0,4.99972120164681,0.013616909611190692,-0.026463954262185143,0
1,4.0000000000040004e-05,5.000378781950543,0.01295932994485767,-0.02582655678212842,0
2,8.000000000008001e-05,5.000378781950543,0.01295932994485767,-0.025846637433191686,0
3,0.00011999999999989797,5.000378781950543,0.013616909611190692,-0.02652419605757316,0
4,0.00015999999999993797,5.000378781950543,0.014603279111640999,-0.027530442666041464,0
5,0.00019999999999997797,5.000707572102282,0.014603279111640999,-0.02755021776780164,0
6,0.00024000000000001798,4.99972120164681,0.01328811977796078,-0.026254731374186848,0
7,0.000280000000000058,4.998077250885994,0.013616909611190692,-0.026603091831143053,0
8,0.000320000000000098,5.000378781950543,0.013616909611190692,-0.02662255998468054,0
9,0.00035999999999991594,5.000049991798719,0.011644170613713423,-0.024669186517499133,0
10,0.00039999999999995595,5.001036362253937,0.011972960446309217,-0.025017239104895363,0
11,0.00043999999999999595,5.000378781950543,0.01328811977796078,-0.026351558264399298,0
12,0.00048000000000003595,5.000378781950543,0.011315380781244458,-0.02439787601793796,0
13,0.000520000000000076,5.001036362253937,0.011972960446309217,-0.025074409205816443,0
14,0.0005599999999998939,4.998077250885994,0.011644170613713423,-0.0247644695195568,0
15,0.0005999999999999339,5.000378781950543,0.010986590948902406,-0.024125636476377745,0
16,0.0006399999999999739,5.000378781950543,0.011972960446309217,-0.02513064892329749,0
17,0.0006800000000000139,5.001693942556992,0.01065780111668721,-0.023834028724468468,0
18,0.0007200000000000539,5.000049991798719,0.011972960446309217,-0.02516762322037857,0
19,0.0007600000000000939,5.000049991798719,0.01065780111668721,-0.02387079494757289,0
20,0.0007999999999999119,5.000378781950543,0.012630540111881347,-0.02586176074596486,0
21,0.0008399999999999519,5.001036362253937,0.01295932994485767,-0.02620867298519606,0
22,0.0008799999999999919,4.998406041038327,0.013616909611190692,-0.026884270518340855,0
23,0.0009200000000000319,5.000049991798719,0.013945699444547363,-0.02723097353739245,0
24,0.0009600000000000719,5.000707572102282,0.014274489278030808,-0.027577571734608657,0
25,0.001000000000000112,5.000707572102282,0.015589648613231935,-0.028910434471565525,0
26,0.0010399999999999299,4.99972120164681,0.016904807950460177,-0.030243192109390096,0
27,0.0010799999999999699,5.000378781950543,0.017233597785083862,-0.03058947500510282,0
28,0.0011200000000000099,5.000707572102282,0.017233597785083862,-0.030606862689173224,0
29,0.0011600000000000499,5.000049991798719,0.01756238761983417,-0.030952934694302568,0
30,0.0012000000000000899,5.000049991798719,0.017233597785083862,-0.030641321380407777,0
31,0.0012399999999999078,5.000049991798719,0.016904807950460177,-0.030329602282126486,0
32,0.0012799999999999478,5.000378781950543,0.01756238761983417,-0.03100414676918471,0
33,0.0013199999999999878,5.000378781950543,0.017233597785083862,-0.030692215700162024,0
34,0.0013600000000000279,5.000378781950543,0.01756238761983417,-0.03103775811623348,0
35,0.0014000000000000679,5.000049991798719,0.015918438447348998,-0.029410455209063692,0
36,0.0014400000000001079,5.000049991798719,0.016247228281592724,-0.02975578486187031,0
37,0.0014799999999999258,5.000049991798719,0.016904807950460177,-0.03042979777265598,0
38,0.0015199999999999658,4.99972120164681,0.015589648613231935,-0.029130964971665573,0
39,0.0015600000000000058,4.99972120164681,0.014932068945377922,-0.028489605006191784,0
40,0.0016000000000000458,4.99972120164681,0.013616909611190692,-0.02719055841321031,0
41,0.0016400000000000858,4.999392411494816,0.01295932994485767,-0.026548984400453977,0
42,0.0016799999999999038,5.000049991798719,0.012301750279031881,-0.025907303174985394,0
43,0.0017199999999999438,5.000378781950543,0.01065780111668721,-0.024279145115054072,0
44,0.0017599999999999838,5.000049991798719,0.008027482463535476,-0.021664510102515445,0
45,0.0018000000000000238,5.000378781950543,0.008356272294735026,-0.022008875989541356,0
46,0.0018400000000000638,5.000049991798719,0.006383533309443135,-0.02005160535317438,0
47,0.0018800000000001038,5.001365152405508,0.00506837398845672,-0.01875180655297038,0
48,0.0019199999999999218,4.99972120164681,0.004739584158527918,-0.018438269295315973,0
49,0.0019599999999999618,5.000049991798719,0.0014516858662357995,-0.015165515507302099,0
50,0.0020000000000000018,5.001036362253937,0.0004653163810297567,-0.01419418233976923,0
51,0.0020400000000000418,5.001036362253937,-0.0024937920677107622,-0.011250001904368975,0
52,0.002080000000000082,4.998406041038327,-0.0024937920677107622,-0.011264821496531408,0
53,0.0021199999999998997,5.000378781950543,-0.0047953208540382625,-0.008978003765228386,0
54,0.0021599999999999397,5.004981844067175,-0.004466531027802631,-0.009321395994277008,0
55,0.0021999999999999797,4.99972120164681,-0.0031513717215847087,-0.010651048936911378,0
56,0.0022400000000000198,5.000049991798719,-0.005124110680146385,-0.008692694735074814,0
57,0.0022800000000000598,4.99643330012306,-0.00348016154833046,-0.010350919631521727,0
58,0.0023200000000000998,4.99972120164681,-0.001178632758433426,-0.012666615082446618,0
59,0.0023599999999999177,5.003009103162085,-0.004466531027802631,-0.0093927742598887,0
60,0.0023999999999999577,4.99972120164681,-0.004466531027802631,-0.009406722382767331,0
61,0.0024399999999999977,4.999063621342738,-0.00348016154833046,-0.010406930552368535,0
62,0.0024800000000000377,4.99972120164681,-0.003808951374948702,-0.010091869875213707,0
63,0.0025200000000000777,5.000049991798719,-0.005452900506126915,-0.008461540245819958,0
64,0.0025599999999998957,5.000378781950543,-0.005452900506126915,-0.008475049993816573,0
65,0.0025999999999999357,5.000378781950543,-0.006439269983302923,-0.007502080405646632,0
66,0.0026399999999999757,4.999392411494816,-0.007096849634115457,-0.006857790680554827,0
67,0.0026800000000000157,5.000378781950543,-0.00808321910937683,-0.0058846010643436655,0
68,0.0027200000000000557,5.000378781950543,-0.00874079875891258,-0.005240091104713775,0
69,0.0027600000000000957,5.000049991798719,-0.00808321910937683,-0.005910630173450202,0
70,0.0027999999999999137,5.000049991798719,-0.007754429284417372,-0.006252269046258974,0
71,0.0028399999999999537,5.000378781950543,-0.0090695885834889,-0.004949848323955539,0
72,0.0028799999999999937,5.000049991798719,-0.010384747880516562,-0.003647317033802843,0
73,0.0029200000000000337,4.999063621342738,-0.010055958056451306,-0.0039886241969576755,0
74,0.0029600000000000737,5.000378781950543,-0.011042327528263687,-0.003014661299478534,0
75,0.0029999999999998916,4.99972120164681,-0.010384747880516562,-0.003684536660754592,0
76,0.0030399999999999316,5.000378781950543,-0.010384747880516562,-0.0036967214183558743,0
77,0.0030799999999999716,5.000707572102282,-0.0113711173519455,-0.0027224256544034833,0
78,0.0031200000000000117,5.000378781950543,-0.00939837840793746,-0.004707127162494124,0
79,0.0031600000000000517,4.99972120164681,-0.0113711173519455,-0.002746239546835009,0
80,0.0032000000000000917,5.000378781950543,-0.012028696998925656,-0.0021003999010614505,0
81,0.0032399999999999096,5.000707572102282,-0.01301506646843685,-0.00112565901513852,0
82,0.0032799999999999496,4.99972120164681,-0.014330225759327644,0.00017798319932410545,0
83,0.0033199999999999896,5.000707572102282,-0.014330225759327644,0.00016657771866196783,0
84,0.0033600000000000296,5.000378781950543,-0.012357486822223915,-0.001817455015669378,0
85,0.0034000000000000696,5.000378781950543,-0.014659015581730453,0.0004728917167735186,0
86,0.0034400000000001096,5.000049991798719,-0.015316595226152155,0.0011194011900844646,0
87,0.0034799999999999276,5.000707572102282,-0.01564538504817102,0.0014372327817922213,0
88,0.0035199999999999676,5.001365152405508,-0.01696054433496612,0.0027415458629789155,0
89,0.0035600000000000076,5.000049991798719,-0.018275703619711994,0.004045971049776945,0
90,0.0036000000000000476,5.000049991798719,-0.01860449344057817,0.004364138962366964,0
91,0.0036400000000000876,5.000049991798719,-0.018933283261316228,0.0046824191455634295,0
92,0.0036799999999999056,4.99972120164681,-0.019590862902407788,0.0053296014999611036,0
93,0.0037199999999999456,5.000049991798719,-0.019590862902407788,0.005319316643276846,0
94,0.0037599999999999856,5.000378781950543,-0.01926207308192608,0.004980354474329755,0
95,0.0038000000000000256,5.002351522859708,-0.01991965272276132,0.005627874352173552,0
96,0.0038400000000000656,5.000707572102282,-0.020577232363083744,0.00627550689127793,0
97,0.0038800000000001056,5.000049991798719,-0.020248442542986647,0.005936882707078563,0
98,0.0039199999999999235,5.000378781950543,-0.02090602218305261,0.0065847407945419205,0
99,0.0039599999999999635,5.001036362253937,-0.02090602218305261,0.00657513212686291,0
100,0.0040000000000000036,5.000378781950543,-0.02090602218305261,0.006565636416570025,0
101,0.0040400000000000436,4.99972120164681,-0.021234812002893247,0.006885043555003568,0
102,0.0040800000000000836,4.99972120164681,-0.020577232363083744,0.006218194333208148,0
103,0.0041199999999999015,4.998077250885994,-0.0228787611001723,0.008510566657301627,0
104,0.0041599999999999415,5.000707572102282,-0.0228787611001723,0.008501523481899982,0
105,0.0041999999999999815,5.000378781950543,-0.02320755091924319,0.008821383430796782,0
106,0.0042400000000000215,5.000049991798719,-0.023536340738185738,0.009141356751457084,0
107,0.0042800000000000615,4.999063621342738,-0.023536340738185738,0.009132653690759787,0
108,0.0043200000000001015,5.000378781950543,-0.023536340738185738,0.009124064132367975,0
109,0.0043599999999999195,4.99972120164681,-0.024522710194243194,0.01010195759608577,0
110,0.0043999999999999595,4.998406041038327,-0.025180289830972882,0.010751174869299423,0
111,0.0044399999999999995,4.99972120164681,-0.023536340738185738,0.009098977103614785,0
112,0.0044800000000000395,5.000378781950543,-0.022221181461645576,0.007775682905612688,0
113,0.0045200000000000795,5.000049991798719,-0.021563601822605624,0.007110082156384149,0
114,0.0045599999999998975,5.000378781950543,-0.021234812002893247,0.006773385096613845,0
115,0.0045999999999999375,4.99972120164681,-0.02090602218305261,0.006436801964721493,0
116,0.0046399999999999775,4.99972120164681,-0.018933283261316228,0.0044563837158320685,0
117,0.0046800000000000175,5.000049991798719,-0.018275703619711994,0.00379123878788158,0
118,0.0047200000000000575,4.99972120164681,-0.017618123977595282,0.0031262079551478816,0
119,0.0047600000000000975,4.99972120164681,-0.01630296469182467,0.0018037116284251604,0
120,0.0047999999999999154,5.000378781950543,-0.01630296469182467,0.0017964887900854144,0
121,0.0048399999999999554,4.99972120164681,-0.01564538504817102,0.0011318005626625178,0
122,0.0048799999999999955,5.000049991798719,-0.01696054433496612,0.0024399655712264313,0
123,0.0049200000000000355,5.001365152405508,-0.017618123977595282,0.003090665291138276,0
124,0.0049600000000000755,5.000049991798719,-0.017946913798717698,0.003412689594040088,0
125,0.004999999999999893,5.000378781950543,-0.01991965272276132,0.005378777452348552,0
126,0.005039999999999933,5.000049991798719,-0.019590862902407788,0.0050434510657387695,0
127,0.005079999999999973,5.000378781950543,-0.020248442542986647,0.005694608685537252,0
128,0.005120000000000013,5.000049991798719,-0.020577232363083744,0.006017091075329179,0
129,0.005160000000000053,4.99972120164681,-0.020577232363083744,0.006010898279499716,0
130,0.0052000000000000934,5.000378781950543,-0.0228787611001723,0.008306348898235071,0
131,0.005239999999999911,4.99972120164681,-0.022549971280973066,0.007971595680158355,0
132,0.005279999999999951,4.999392411494816,-0.023865130556999917,0.009280906317780648,0
133,0.005319999999999991,5.000378781950543,-0.025509079649145103,0.01091912157198804,0
134,0.005360000000000031,5.000049991798719,-0.023865130556999917,0.009269553481361242,0
135,0.005400000000000071,5.000378781950543,-0.025509079649145103,0.010907998452464818,0
136,0.005440000000000111,5.000378781950543,-0.024193920375685754,0.009587449972381066,0
137,0.005479999999999929,4.99972120164681,-0.0228787611001723,0.008267016440629868,0
138,0.005519999999999969,5.000378781950543,-0.02320755091924319,0.008590646988810385,0
139,0.005560000000000009,4.998734831190575,-0.023536340738185738,0.008914392556160836,0
140,0.005600000000000049,5.000378781950543,-0.021892391642189743,0.007265514260811089,0
141,0.005640000000000089,5.000049991798719,-0.0228787611001723,0.008247069603606405,0
142,0.005679999999999907,5.000707572102282,-0.020577232363083744,0.005940841866412411,0
143,0.005719999999999947,4.99972120164681,-0.02090602218305261,0.006265047831259,0
144,0.005759999999999987,5.000378781950543,-0.018933283261316228,0.00428784022826997,0
145,0.005800000000000027,5.000378781950543,-0.01926207308192608,0.004612276569367371,0
146,0.005840000000000067,5.000378781950543,-0.01926207308192608,0.004608038318448799,0
147,0.005880000000000107,4.99972120164681,-0.01860449344057817,0.0039463356806120516,0
148,0.005919999999999925,4.999392411494816,-0.017946913798717698,0.003284748321509545,0
149,0.005959999999999965,5.000707572102282,-0.018933283261316228,0.004267225369910192,0
150,0.006000000000000005,4.99972120164681,-0.01630296469182467,0.001633129712041586,0
151,0.006040000000000045,5.000378781950543,-0.017946913798717698,0.003273417078133464,0
152,0.006080000000000085,4.99972120164681,-0.01630296469182467,0.0016259215987477474,0
153,0.006119999999999903,5.000378781950543,-0.01564538504817102,0.0009649109706189873,0
154,0.006159999999999943,4.998734831190575,-0.015316595226152155,0.0006328055708273855,0
155,0.006199999999999983,5.000378781950543,-0.015316595226152155,0.000629605417416643,0
156,0.006240000000000023,5.000378781950543,-0.014330225759327644,-0.000359848761823052,0
157,0.006280000000000063,5.000707572102282,-0.01301506646843685,-0.0016779773085268098,0
158,0.006320000000000103,5.000049991798719,-0.0116999071754995,-0.0029959903860959955,0
159,0.006359999999999921,5.000378781950543,-0.0116999071754995,-0.00299872868599639,0
160,0.006399999999999961,5.000049991798719,-0.009727168232258263,-0.004974090431885687,0
161,0.006440000000000001,5.000049991798719,-0.007425639459330238,-0.007278126498718794,0
162,0.006480000000000041,5.000378781950543,-0.006439269983302923,-0.008266887749448611,0
163,0.006520000000000081,5.000378781950543,-0.005124110680146385,-0.009584323298677293,0
164,0.006559999999999899,4.99972120164681,-0.004466531027802631,-0.010244063660067656,0
165,0.006599999999999939,5.000378781950543,-0.004466531027802631,-0.010246108824726926,0
166,0.006639999999999979,5.000378781950543,-0.003808951374948702,-0.010905618091525111,0
167,0.006680000000000019,5.000378781950543,-0.004137741201439435,-0.010578642322970826,0
168,0.006720000000000059,5.000707572102282,-0.005124110680146385,-0.00959397134193532,0
169,0.006760000000000099,4.999392411494816,-0.006110480157705198,-0.00860918479856207,0
170,0.006799999999999917,5.000378781950543,-0.007754429284417372,-0.006966703040365735,0
171,0.006839999999999957,5.000049991798719,-0.00939837840793746,-0.00532410571854565,0
172,0.006879999999999997,5.000049991798719,-0.010384747880516562,-0.004338972480743036,0
173,0.006920000000000037,5.000707572102282,-0.014001435936796827,-0.0007234050932471685,0
174,0.006960000000000077,5.000049991798719,-0.01630296469182467,0.0015771185570171752,0
175,0.006999999999999895,5.000049991798719,-0.018933283261316228,0.004206547582754511,0
176,0.007039999999999935,4.999392411494816,-0.021892391642189743,0.007164881976830389,0
177,0.007079999999999975,5.000378781950543,-0.023865130556999917,0.009136962456705098,0
178,0.007120000000000015,4.99972120164681,-0.025509079649145103,0.010780368659640193,0
179,0.007160000000000055,4.99972120164681,-0.02715302873807933,0.0124238903979099,0
180,0.007200000000000095,5.000049991798719,-0.029125767640559533,0.01439631748004774,0
181,0.007239999999999913,5.000049991798719,-0.030769716722423582,0.016040070262623985,0
182,0.007279999999999953,4.999392411494816,-0.03142729635426868,0.016697569105923415,0
183,0.007319999999999993,5.000049991798719,-0.031756086169998185,0.01702639363249162,0
184,0.007360000000000033,5.001693942556992,-0.03208487598559902,0.017355333645911825,0
185,0.007400000000000073,4.99972120164681,-0.031756086169998185,0.017026809501660956,0
186,0.007440000000000113,5.000378781950543,-0.03241366580107112,0.017684770263117378,0
187,0.007479999999999931,4.999063621342738,-0.03208487598559902,0.017356477021517745,0
188,0.007519999999999971,5.000378781950543,-0.029783347273691016,0.015055560310378613,0
189,0.007560000000000011,5.001036362253937,-0.029125767640559533,0.01439870808727129,0
190,0.007600000000000051,5.000378781950543,-0.02781060837275358,0.013084391620054685,0
191,0.007640000000000091,5.002351522859708,-0.026166659285104213,0.01144140070382024,0
192,0.007679999999999909,5.000378781950543,-0.025180289830972882,0.010456104771139844,0
193,0.007719999999999949,5.000049991798719,-0.022221181461645576,0.007498185251459523,0
194,0.007759999999999989,5.000378781950543,-0.021892391642189743,0.007170699586955941,0
195,0.007800000000000029,4.99972120164681,-0.021563601822605624,0.006843329203687325,0
196,0.00784000000000007,4.99972120164681,-0.022221181461645576,0.007502443535412356,0
197,0.00788000000000011,4.99972120164681,-0.021892391642189743,0.007175303638965493,0
198,0.007919999999999927,4.999392411494816,-0.022221181461645576,0.007505858584656123,0
199,0.007959999999999967,4.99972120164681,-0.022221181461645576,0.007507738885965924,0
200,0.008000000000000007,5.000049991798719,-0.02320755091924319,0.00849610379074444,0
201,0.008040000000000047,5.000378781950543,-0.022221181461645576,0.007511844895941517,0
202,0.008080000000000087,5.000049991798719,-0.022221181461645576,0.0075140705430388945,0
203,0.008119999999999905,5.000049991798719,-0.023536340738185738,0.008831570518613923,0
204,0.008159999999999945,5.001036362253937,-0.023536340738185738,0.008834026236166696,0
205,0.008199999999999985,5.001036362253937,-0.024193920375685754,0.009494176575263103,0
206,0.008240000000000025,5.000378781950543,-0.026166659285104213,0.011469601134792272,0
207,0.008280000000000065,5.000378781950543,-0.026495449102891075,0.011801191514619613,0
208,0.008320000000000105,5.000049991798719,-0.02781060837275358,0.013119266220812272,0
209,0.008359999999999923,4.99972120164681,-0.02781060837275358,0.013122296492736182,0
210,0.008399999999999963,4.999392411494816,-0.027481818555480722,0.012796651743229016,0
211,0.008440000000000003,5.000378781950543,-0.029125767640559533,0.014443860651107053,0
212,0.008480000000000043,5.000378781950543,-0.029783347273691016,0.015104814820206548,0
213,0.008520000000000083,4.99972120164681,-0.03044092690630805,0.01576588365903895,0
214,0.008559999999999901,5.000049991798719,-0.030769716722423582,0.016098277307638915,0
215,0.008599999999999941,5.000378781950543,-0.03142729635426868,0.01675957535320221,0
216,0.008639999999999981,5.000049991798719,-0.029125767640559533,0.014461879588352527,0
217,0.008680000000000021,5.000049991798719,-0.03044092690630805,0.015780986290951933,0
218,0.008720000000000061,4.99972120164681,-0.030112137090063842,0.015456258351342688,0
219,0.008760000000000101,4.99972120164681,-0.03044092690630805,0.01578922443474095,0
220,0.008799999999999919,4.998734831190575,-0.030112137090063842,0.01546472522584708,0
221,0.008839999999999959,5.000378781950543,-0.03044092690630805,0.015797919938257212,0
222,0.008879999999999999,4.99972120164681,-0.031098506538410467,0.016460018702902385,0
223,0.008920000000000039,5.000049991798719,-0.03044092690630805,0.015807072386222726,0
224,0.008960000000000079,5.000049991798719,-0.03241366580107112,0.01778455872473357,0
225,0.008999999999999897,4.99972120164681,-0.03340003524671499,0.01877578968683709,0
226,0.009039999999999937,5.000378781950543,-0.03372882506167206,0.01910955503429431,0
227,0.009079999999999977,5.000378781950543,-0.03603035376276496,0.02141617322619825,0
228,0.009120000000000017,5.001693942556992,-0.03668793339048888,0.022078956244256244,0
229,0.009160000000000057,4.99972120164681,-0.03931825189622702,0.024714591980005418,0
230,0.009200000000000097,5.000049991798719,-0.04096220095812057,0.026363972050682652,0
231,0.009239999999999915,5.000378781950543,-0.04194857039370768,0.027355886211863564,0
232,0.009279999999999955,4.999392411494816,-0.04359251945043667,0.029005493647975722,0
233,0.009319999999999995,4.99972120164681,-0.046551627744407784,0.03197037391104042,0
234,0.009360000000000035,5.001036362253937,-0.04589404812443025,0.03131867978472976,0
235,0.009400000000000075,5.003009103162085,-0.047537997173404054,0.032968627785748564,0
236,0.009439999999999893,5.000049991798719,-0.04852436660123595,0.0339611095567505,0
237,0.009479999999999933,5.000049991798719,-0.04852436660123595,0.033967335222734735,0
238,0.009519999999999973,5.000049991798719,-0.04852436660123595,0.033973674142164664,0
239,0.009560000000000013,5.000378781950543,-0.047537997173404054,0.032993756816782405,0
240,0.009600000000000053,5.000378781950543,-0.046880417554202566,0.03234274241156699,0
241,0.009640000000000093,5.000378781950543,-0.04786678698281073,0.03333579009315729,0
242,0.009679999999999911,4.999392411494816,-0.046551627744407784,0.03202742207313525,0
243,0.009719999999999951,5.000049991798719,-0.046551627744407784,0.03203432618226076,0
244,0.009759999999999991,5.000378781950543,-0.046551627744407784,0.03204134310642007,0
245,0.009800000000000031,5.000049991798719,-0.044907678693494255,0.030404523717932362,0
246,0.009840000000000071,5.000378781950543,-0.04523646850393555,0.030740555851242503,0
247,0.009880000000000111,5.000049991798719,-0.044907678693494255,0.030419120945233656,0
248,0.009919999999999929,4.99972120164681,-0.04392130926139491,0.02944021891919532,0
249,0.009959999999999969,5.000378781950543,-0.04359251945043667,0.029119008934936283,0
250,0.010000000000000009,5.001036362253937,-0.04326372963934923,0.028797911289140752,0
251,0.010040000000000049,4.99972120164681,-0.04030462133375036,0.025846607404326257,0
252,0.010080000000000089,5.000378781950543,-0.04260615001678679,0.028156052679484796,0
253,0.010119999999999907,5.000049991798719,-0.04096220095812057,0.02652013229906955,0
254,0.010159999999999947,4.99972120164681,-0.03931825189622702,0.02488432391529321,0
255,0.010199999999999987,5.000049991798719,-0.03931825189622702,0.024892576505960627,0
256,0.010240000000000027,4.999392411494816,-0.03635914357669136,0.02194183260127347,0
257,0.010280000000000067,4.999392411494816,-0.03668793339048888,0.02227909856467871,0
258,0.010320000000000107,5.000707572102282,-0.035043984320212454,0.020643737288294974,0
259,0.010359999999999925,5.000378781950543,-0.03241366580107112,0.018022118115805077,0
260,0.010399999999999965,4.998734831190575,-0.0340576148765004,0.01967487799806668,0
261,0.010440000000000005,4.998734831190575,-0.029783347273691016,0.015409532568641422,0
262,0.010480000000000045,5.000707572102282,-0.029783347273691016,0.015418566013897421,0
263,0.010520000000000085,4.99643330012306,-0.028796977823800904,0.014441341185404862,0
264,0.010559999999999903,5.001693942556992,-0.03142729635426868,0.017080915416631485,0
265,0.010599999999999943,4.998406041038327,-0.027481818555480722,0.013144804300133964,0
266,0.010639999999999983,5.001693942556992,-0.024851500012672237,0.010523963322268761,0
267,0.010680000000000023,4.99972120164681,-0.026495449102891075,0.012177500760156428,0
268,0.010720000000000063,4.997419670581074,-0.025509079649145103,0.011200830335829486,0
269,0.010760000000000103,4.999392411494816,-0.022221181461645576,0.007922741757476265,0
270,0.01079999999999992,4.999063621342738,-0.01926207308192608,0.004973553463560355,0
271,0.01083999999999996,5.000049991798719,-0.019590862902407788,0.005312373742386436,0
272,0.01088,5.000378781950543,-0.0166317545134594,0.002363406079160732,0
273,0.01092000000000004,5.000378781950543,-0.015316595226152155,0.0010584976787465887,0
274,0.01096000000000008,4.99972120164681,-0.013672646114138112,-0.0005750904924566903,0
275,0.010999999999999899,5.000378781950543,-0.012357486822223915,-0.0018797788979394402,0
276,0.011039999999999939,5.000707572102282,-0.010713537704454032,-0.003513147292997846,0
277,0.011079999999999979,5.000378781950543,-0.010055958056451306,-0.004160036492392771,0
278,0.011120000000000019,5.000378781950543,-0.010713537704454032,-0.003491656781312042,0
279,0.011160000000000059,5.000378781950543,-0.011042327528263687,-0.0031519573924220813,0
280,0.011200000000000099,4.999063621342738,-0.012028696998925656,-0.0021545689681865023,0
281,0.011239999999999917,5.000049991798719,-0.012357486822223915,-0.0018146509173707255,0
282,0.011279999999999957,5.000378781950543,-0.013672646114138112,-0.0004882542395842522,0
283,0.011319999999999997,5.000378781950543,-0.014330225759327644,0.0001806718332041657,0
284,0.011360000000000037,5.000049991798719,-0.0166317545134594,0.002493655938994959,0
285,0.011400000000000077,5.000378781950543,-0.017289334156344746,0.003162799738895484,0
286,0.011439999999999895,5.000378781950543,-0.01926207308192608,0.0051472115071072855,0
287,0.011479999999999935,5.000378781950543,-0.022221181461645576,0.008118101294295639,0
288,0.011519999999999975,5.000378781950543,-0.022221181461645576,0.008129991144790677,0
289,0.011560000000000015,4.99972120164681,-0.024193920375685754,0.010114728229505354,0
290,0.011600000000000055,4.99972120164681,-0.023536340738185738,0.009469254958978856,0
291,0.011640000000000095,5.000049991798719,-0.025180289830972882,0.0111254184901252,0
292,0.011679999999999913,5.000378781950543,-0.023865130556999917,0.009822581599951656,0
293,0.011719999999999953,4.99972120164681,-0.025837869467188898,0.011807750712403548,0
294,0.011759999999999993,4.998077250885994,-0.026824238920549456,0.012806658058483349,0
295,0.011800000000000033,5.000049991798719,-0.02715302873807933,0.013148093330152084,0
296,0.011840000000000073,4.998734831190575,-0.02781060837275358,0.013818425850319406,0
297,0.011880000000000113,5.000049991798719,-0.02715302873807933,0.01317370640139919,0
298,0.01191999999999993,4.99972120164681,-0.029454557457189598,0.01548820247440428,0
299,0.01195999999999997,4.99972120164681,-0.028796977823800904,0.014843697229905004,0
300,0.01200000000000001,4.99972120164681,-0.029783347273691016,0.015843247969507823,0
301,0.01204000000000005,4.998734831190575,-0.029454557457189598,0.015527746208346923,0
302,0.01208000000000009,5.000049991798719,-0.030769716722423582,0.016856300158330485,0
303,0.012119999999999909,5.000049991798719,-0.031098506538410467,0.017198591151235003,0
304,0.012159999999999949,5.000378781950543,-0.030769716722423582,0.016883408866071502,0
305,0.012199999999999989,5.000049991798719,-0.030769716722423582,0.01689712261151808,0
306,0.012240000000000029,5.000378781950543,-0.03142729635426868,0.017568522063131198,0
307,0.012280000000000069,5.000378781950543,-0.03044092690630805,0.016596078367940116,0
308,0.012320000000000109,5.000378781950543,-0.031756086169998185,0.017925269175064255,0
309,0.012359999999999927,5.001036362253937,-0.030769716722423582,0.016953036918234975,0
310,0.012399999999999967,4.99972120164681,-0.03044092690630805,0.016638489795807964,0
311,0.012440000000000007,5.000049991798719,-0.029783347273691016,0.015995258214440613,0
312,0.012480000000000047,5.000049991798719,-0.029125767640559533,0.015352131843725197,0
313,0.012520000000000087,4.99972120164681,-0.029125767640559533,0.015366690169901226,0
314,0.012559999999999905,5.000049991798719,-0.029125767640559533,0.015381353411420249,0
315,0.012599999999999945,5.000049991798719,-0.028139398189897927,0.014409751968194294,0
316,0.012639999999999985,5.001693942556992,-0.029125767640559533,0.015410994041773542,0
317,0.012680000000000025,5.000049991798719,-0.02715302873807933,0.013453232226251288,0
318,0.012720000000000065,5.000049991798719,-0.02781060837275358,0.01412589325947617,0
319,0.012760000000000105,4.99972120164681,-0.027481818555480722,0.013812288998894334,0
320,0.012799999999999923,5.000378781950543,-0.026824238920549456,0.013169998924338705,0
321,0.012839999999999963,4.99972120164681,-0.026824238920549456,0.013185392332940882,0
322,0.012880000000000003,5.000378781950543,-0.027481818555480722,0.013858469068241773,0
323,0.012920000000000043,5.000049991798719,-0.02781060837275358,0.014202859520192852,0
324,0.012960000000000083,5.000378781950543,-0.02781060837275358,0.014218563530722254,0
325,0.0129999999999999,5.000049991798719,-0.028468188006913683,0.014891950391808266,0
326,0.01303999999999994,4.99972120164681,-0.026824238920549456,0.01326391158831579,0
327,0.01307999999999998,5.000378781950543,-0.026824238920549456,0.013279924765688051,0
328,0.01312000000000002,5.000378781950543,-0.026166659285104213,0.012638461039676885,0
329,0.01316000000000006,5.000378781950543,-0.026495449102891075,0.012983469335528911,0
330,0.0132000000000001,5.000707572102282,-0.026166659285104213,0.012671000400016855,0
331,0.013239999999999919,5.000707572102282,-0.025837869467188898,0.012358633703175111,0
332,0.013279999999999959,4.999392411494816,-0.025509079649145103,0.012046369078604681,0
333,0.013319999999999999,5.000378781950543,-0.025180289830972882,0.011734206358919938,0
334,0.013360000000000039,5.000707572102282,-0.024522710194243194,0.011093355557320776,0
335,0.013400000000000079,4.99972120164681,-0.024851500012672237,0.01143897577816844,0
336,0.013439999999999896,5.000049991798719,-0.024522710194243194,0.011127117759108641,0
337,0.013479999999999936,4.99972120164681,-0.024193920375685754,0.010815360965552499,0
338,0.013519999999999976,5.000707572102282,-0.026166659285104213,0.012805233953306057,0
339,0.013560000000000016,5.000378781950543,-0.026495449102891075,0.013151258729485355,0
340,0.013600000000000056,5.000049991798719,-0.025837869467188898,0.012511014757979751,0
341,0.013640000000000096,5.000378781950543,-0.028139398189897927,0.014829979675461003,0
342,0.013679999999999914,4.999392411494816,-0.028139398189897927,0.014847516224606616,0
343,0.013719999999999954,4.99972120164681,-0.028468188006913683,0.015193942767966841,0
344,0.013759999999999994,5.000049991798719,-0.028139398189897927,0.014882889676349152,0
345,0.013800000000000034,5.001036362253937,-0.029783347273691016,0.016544675305479487,0
346,0.013840000000000074,4.998406041038327,-0.03044092690630805,0.017220191123290908,0
347,0.013879999999999892,5.000707572102282,-0.031756086169998185,0.01855338603098442,0
348,0.013919999999999932,4.999392411494816,-0.03372882506167206,0.020544259843458014,0
349,0.013959999999999972,5.000378781950543,-0.035701563948709644,0.022535232745116037,0
350,0.014000000000000012,5.000049991798719,-0.03603035376276496,0.022882355483675516,0
351,0.014040000000000052,5.000049991798719,-0.03800309264438971,0.02487352601479137,0
352,0.014080000000000092,5.000049991798719,-0.03866067227056637,0.025549635829591223,0
353,0.01411999999999991,4.999392411494816,-0.04030462133375036,0.027212213433719244,0
354,0.01415999999999995,5.000378781950543,-0.04194857039370768,0.028874889199175482,0
355,0.01419999999999999,5.000378781950543,-0.04326372963934923,0.03020887312615181,0
356,0.01424000000000003,5.000378781950543,-0.04359251945043667,0.030556585404739534,0
357,0.01428000000000007,4.99972120164681,-0.04589404812443025,0.03287713414177883,0
358,0.01432000000000011,5.000049991798719,-0.0445788888829237,0.031581092367295394,0
359,0.014359999999999928,5.000049991798719,-0.04523646850393555,0.03225788666679347,0
360,0.014399999999999968,5.000378781950543,-0.047537997173404054,0.03457872703275262,0
361,0.014440000000000008,5.000049991798719,-0.04720920736386795,0.034269345743310156,0
362,0.014480000000000048,5.001036362253937,-0.04786678698281073,0.03494643051060726,0
363,0.014520000000000088,5.000378781950543,-0.047537997173404054,0.03463724228153401,0
364,0.014559999999999906,5.000049991798719,-0.04786678698281073,0.0349857299060342,0
365,0.014599999999999946,4.99972120164681,-0.047537997173404054,0.03467673394832653,0
366,0.014639999999999986,5.000378781950543,-0.046551627744407784,0.03371025420854634,0
367,0.014680000000000026,5.000707572102282,-0.04720920736386795,0.03438781915471926,0
368,0.014720000000000066,5.000378781950543,-0.04786678698281073,0.03506547953692088,0
369,0.014760000000000106,5.000378781950543,-0.04720920736386795,0.034428075915904126,0
370,0.014799999999999924,5.000707572102282,-0.046551627744407784,0.03379076732623187,0
371,0.014839999999999964,5.000049991798719,-0.04622283793448369,0.03348234337422768,0
372,0.014880000000000004,5.000378781950543,-0.04622283793448369,0.03350280385562704,0
373,0.014920000000000044,5.000707572102282,-0.0445788888829237,0.03187940970337251,0
374,0.014960000000000084,4.999392411494816,-0.0445788888829237,0.031900058814091845,0
375,0.014999999999999902,4.997748460733576,-0.04359251945043667,0.030934432496328917,0
376,0.015039999999999942,5.000378781950543,-0.0445788888829237,0.031941638839220826,0
377,0.015079999999999982,5.000378781950543,-0.04293493982813261,0.030318620281278418,0
378,0.015120000000000022,5.000049991798719,-0.04293493982813261,0.030339644154423008,0
379,0.015160000000000062,5.001036362253937,-0.04194857039370768,0.029374391758381684,0
380,0.015200000000000102,4.99972120164681,-0.04194857039370768,0.029395601750040468,0
381,0.01523999999999992,5.000049991798719,-0.042277360205311795,0.029745694293709816,0
382,0.01527999999999996,5.000049991798719,-0.04030462133375036,0.027794350680848432,0
383,0.01532,5.000378781950543,-0.039975831521371616,0.027487048439132,0
384,0.01536000000000004,5.000378781950543,-0.03964704170886384,0.0271798382936774,0
385,0.01540000000000008,4.999392411494816,-0.0389894620834612,0.02654393021525061,0
386,0.015439999999999898,5.000049991798719,-0.0383318824575425,0.025908113798867566,0
387,0.015479999999999938,4.999392411494816,-0.03767430283110791,0.025272388826272987,0
388,0.015519999999999978,5.000049991798719,-0.03767430283110791,0.025294334705271405,0
389,0.015560000000000018,5.001036362253937,-0.03734551301769716,0.024987581775983213,0
390,0.015600000000000058,5.000707572102282,-0.035701563948709644,0.023365760375321856,0
391,0.0156400000000001,4.99972120164681,-0.035372774134525484,0.02305918879186272,0
392,0.015679999999999916,5.000707572102282,-0.035372774134525484,0.023081497362299842,0
393,0.015719999999999956,5.000378781950543,-0.035043984320212454,0.022775106234569385,0
394,0.015759999999999996,5.000049991798719,-0.035043984320212454,0.022797594812852984,0
395,0.015800000000000036,4.999392411494816,-0.035372774134525484,0.023148962871830644,0
396,0.015840000000000076,5.000049991798719,-0.035372774134525484,0.023171630556682914,0
397,0.015879999999999894,5.001365152405508,-0.03603035376276496,0.023851967082897704,0
398,0.015919999999999934,4.999392411494816,-0.03668793339048888,0.024532392593786426,0
399,0.015959999999999974,4.99972120164681,-0.03668793339048888,0.024555327233340488,0
400,0.016000000000000014,5.000378781950543,-0.037016723204157484,0.02490714021328775,0
401,0.016040000000000054,5.000707572102282,-0.0389894620834612,0.02690299055506793,0
402,0.016080000000000094,5.000378781950543,-0.04129099077011207,0.029227718769006407,0
403,0.016119999999999912,5.001693942556992,-0.04326372963934923,0.031223744998098116,0
404,0.016159999999999952,4.999392411494816,-0.045565258314247556,0.033548648632318594,0
405,0.016199999999999992,5.000049991798719,-0.04852436660123595,0.036531219244144535,0
406,0.016240000000000032,5.000378781950543,-0.05148347487774181,0.0395138769762006,0
407,0.016280000000000072,4.99972120164681,-0.05214105449331856,0.040195092942389266,0
408,0.016320000000000112,5.000049991798719,-0.05510016275699865,0.043177924215246244,0
409,0.01635999999999993,5.000378781950543,-0.057730481204784426,0.04583205209343374,0
410,0.01639999999999997,5.000049991798719,-0.06003200983978245,0.04815747634187715,0
411,0.01644000000000001,4.99972120164681,-0.06233353846841526,0.05048298652797921,0
412,0.01648000000000005,5.000707572102282,-0.06397748748496758,0.05215100280616853,0
413,0.01652000000000009,4.99972120164681,-0.06496385689333826,0.053161524939654044,0
414,0.016559999999999908,5.000049991798719,-0.06562143649826817,0.05384334249165525,0
415,0.016599999999999948,5.000049991798719,-0.06693659570656622,0.055182824626630635,0
416,0.016639999999999988,5.000049991798719,-0.06693659570656622,0.05520723228973701,0
417,0.016680000000000028,5.000378781950543,-0.06759417530993413,0.05588930404863918,0
418,0.016720000000000068,4.99972120164681,-0.06693659570656622,0.05525630084841063,0
419,0.016760000000000108,5.001693942556992,-0.06726538550831525,0.05560975105526215,0
420,0.016799999999999926,5.000378781950543,-0.06562143649826817,0.05399054620582213,0
421,0.016839999999999966,4.999392411494816,-0.06562143649826817,0.05401537387466113,0
422,0.016880000000000006,5.001036362253937,-0.06430627728788789,0.05272512559326753,0
423,0.016920000000000046,4.99972120164681,-0.06331990787873677,0.051763750124357515,0
424,0.016960000000000086,4.99972120164681,-0.0629911180754263,0.0514600370228429,0
425,0.016999999999999904,5.000707572102282,-0.06134716905692379,0.049841247217187384,0
426,0.017039999999999944,5.001365152405508,-0.060689589448612954,0.04920890908146959,0
427,0.017079999999999984,5.000378781950543,-0.06134716905692379,0.04989181217001555,0
428,0.017120000000000024,5.000049991798719,-0.06134716905692379,0.04991721740499253,0
429,0.017160000000000064,4.99972120164681,-0.060689589448612954,0.04928512453270664,0
430,0.017200000000000104,5.001036362253937,-0.059703220035172325,0.048324323101853986,0
431,0.017239999999999922,5.000378781950543,-0.05838806081543309,0.0470348128559925,0
432,0.017279999999999962,5.000707572102282,-0.059703220035172325,0.04837570178484041,0
433,0.017320000000000002,5.000049991798719,-0.060689589448612954,0.04938788138577881,0
434,0.017360000000000042,4.99972120164681,-0.0629911180754263,0.05171530042085696,0
435,0.017400000000000082,5.000378781950543,-0.06496385689333826,0.053714009609401064,0
436,0.0174399999999999,5.000049991798719,-0.06660780590468694,0.05538400869457476,0
437,0.01747999999999994,5.000707572102282,-0.07022449371819571,0.05902682602515474,0
438,0.01751999999999998,4.99972120164681,-0.07449876111382696,0.06332730212038737,0
439,0.01756000000000002,5.000378781950543,-0.07778665909545869,0.0666414877226679,0
440,0.01760000000000006,4.99972120164681,-0.08041697747135755,0.06929817237801628,0
441,0.0176400000000001,5.001365152405508,-0.0840336652245519,0.07294130480645296,0
442,0.017679999999999918,5.000049991798719,-0.0843624550195116,0.07329661740868153,0
443,0.017719999999999958,4.99972120164681,-0.08600640399234578,0.07496716705628918,0
444,0.017759999999999998,5.000049991798719,-0.08732156316825516,0.07630900450920203,0
445,0.017800000000000038,5.000378781950543,-0.08666398358056253,0.0756781805347183,0
446,0.017840000000000078,5.000049991798719,-0.08534882440360501,0.07438985404040349,0
447,0.017879999999999896,5.000049991798719,-0.08107455706402487,0.07014249618538414,0
448,0.017919999999999936,5.000707572102282,-0.07482755091257769,0.06392247605215866,0
449,0.017959999999999976,5.000049991798719,-0.06529264669586828,0.054414634118336205,0
450,0.018000000000000016,4.99972120164681,-0.05444258314375501,0.04359170884404379,0
451,0.018040000000000056,4.99972120164681,-0.04096220095812057,0.03013854066070006,0
452,0.018080000000000096,4.99972120164681,-0.026166659285104213,0.01537028844325044,0
453,0.018119999999999914,5.000378781950543,-0.00874079875891258,-0.0020282074460191077,0
454,0.018159999999999954,4.99972120164681,0.007369902801517392,-0.01811146946081621,0
455,0.018199999999999994,5.000049991798719,0.024138184341410046,-0.03485223681973079,0
456,0.018240000000000034,4.998406041038327,0.03893372714954513,-0.04962019108562614,0
457,0.018280000000000074,5.000049991798719,0.05340048036363608,-0.06405928167101417,0
458,0.018320000000000114,5.000707572102282,0.06655207440480995,-0.07718313927253229,0
459,0.018359999999999932,5.000049991798719,0.0787172990703113,-0.08932055396364424,0
460,0.018399999999999972,5.000378781950543,0.08858099486971066,-0.09915636653084564,0
461,0.018440000000000012,5.000378781950543,0.095485581995499,-0.1060329974442552,0
462,0.018480000000000052,4.999392411494816,0.10173258944188096,-0.11225197597640521,0
463,0.018520000000000092,5.001365152405508,0.10600685772026662,-0.11649814291772981,0
464,0.01855999999999991,5.000049991798719,0.10863717667113368,-0.11910028838842399,0
465,0.01859999999999995,4.99972120164681,0.10962354627973452,-0.12005841265414749,0
466,0.01863999999999999,5.000707572102282,0.10896596654054455,-0.11937251599047005,0
467,0.01868000000000003,5.001036362253937,0.10699322732592072,-0.11737138855152668,0
468,0.01872000000000007,4.998734831190575,0.10436290837996715,-0.11471261036387967,0
469,0.01876000000000011,5.000378781950543,0.09745832118428896,-0.10777949319226968,0
470,0.018799999999999928,5.003666683464122,0.09482800226688862,-0.10512057384850876,0
471,0.018839999999999968,4.997748460733576,0.09088252390559022,-0.10114642489490133,0
472,0.018880000000000008,5.003337893313145,0.08200519765772811,-0.09224035817392953,0
473,0.018920000000000048,5.000378781950543,0.07773092949650393,-0.08793727994460687,0
474,0.018960000000000088,5.000378781950543,0.07115513236633955,-0.08133260343782808,0
475,0.018999999999999906,4.99972120164681,0.06326417587580183,-0.07341269854929049,0
476,0.019039999999999946,4.997748460733576,0.054058060060948765,-0.064177565602837,0
477,0.019079999999999986,4.99972120164681,0.04682468341804723,-0.056915103383170476,0
478,0.019120000000000026,4.9967620902758165,0.04090646620989019,-0.05096773244216779,0
479,0.019160000000000066,4.999392411494816,0.033673089677423634,-0.04370513431050359,0
480,0.019200000000000106,4.99972120164681,0.025453343691792682,-0.035456099149693,0
481,0.019239999999999924,5.000049991798719,0.017233597785083862,-0.027206996782830402,0
482,0.019279999999999964,4.999063621342738,0.01032901128459894,-0.020272986828859946,0
483,0.019320000000000004,5.000378781950543,0.0014516858662357995,-0.01136617125595301,0
484,0.019360000000000044,5.000707572102282,-0.006768059808773,-0.003116869018243533,0
485,0.019400000000000084,5.000707572102282,-0.01564538504817102,0.0057900788984861645,0
486,0.019439999999999902,5.000378781950543,-0.023536340738185738,0.01371072308631657,0
487,0.019479999999999942,5.000378781950543,-0.03241366580107112,0.02261780217273694,0
488,0.019519999999999982,4.999392411494816,-0.04129099077011207,0.0315249463956531,0
489,0.019560000000000022,4.99972120164681,-0.05181226468559495,0.042076104499361375,0
490,0.019600000000000062,5.000049991798719,-0.06003200983978245,0.05032579847952684,0
491,0.019640000000000102,4.99972120164681,-0.07055328351864205,0.06087708532491525,0
492,0.01967999999999992,5.000378781950543,-0.08107455706402487,0.07142843607957533,0
493,0.01971999999999996,5.000378781950543,-0.09060946109885244,0.08099348106802912,0
494,0.01976,4.99972120164681,-0.10080194460026483,0.09121616896842343,0
495,0.01980000000000004,5.000049991798719,-0.11099442797517921,0.10143891988809207,0
496,0.01984000000000008,5.000049991798719,-0.12184449078319924,0.11231931308646848,0
497,0.019879999999999898,5.000049991798719,-0.13400971254782096,0.12451492778629518,0
498,0.019919999999999938,5.000378781950543,-0.14453098527848057,0.13506665569567505,0
499,0.019959999999999978,5.000049991798719,-0.15538104763880373,0.14594723517632424,0
500,0.020000000000000018,4.999063621342738,-0.16886142794382974,0.15945819424079982,0
501,0.020040000000000058,5.000378781950543,-0.18135543875635207,0.17198284514884424,0
502,0.020080000000000098,5.000378781950543,-0.19352065962327597,0.18417876714374637,0
503,0.020119999999999916,5.000049991798719,-0.20897377775410353,0.19966264713083023,0
504,0.020159999999999956,5.000378781950543,-0.2188374700207923,0.20955716167731675,0
505,0.020199999999999996,5.000707572102282,-0.2342905876578798,0.2250411617124517,0
506,0.020240000000000036,4.99972120164681,-0.24744217689741582,0.23822369316244152,0
507,0.020280000000000076,4.997419670581074,-0.2619089248061193,0.252721442787614,0
508,0.020319999999999894,4.999392411494816,-0.27834841074054784,0.2691919896375913,0
509,0.020359999999999934,4.99972120164681,-0.2944591066187571,0.28533380532295305,0
510,0.020399999999999974,4.999392411494816,-0.3125425403677243,0.303448417462663,0
511,0.020440000000000014,5.000049991798719,-0.33062597369133245,0.3215630874520579,0
512,0.020480000000000054,5.000049991798719,-0.3500245653265829,0.34099297371906323,0
513,0.020520000000000094,5.000707572102282,-0.3713958945210345,0.3623956552016353,0
514,0.02055999999999991,5.000707572102282,-0.39178085411236785,0.38281202442732987,0
515,0.02059999999999995,5.000707572102282,-0.4138097614355476,0.40487239842046796,0
516,0.02063999999999999,5.000049991798719,-0.4371538266948788,0.4282479870741944,0
517,0.02068000000000003,4.999392411494816,-0.4575387844889738,0.4486645246754486,0
518,0.02072000000000007,4.99972120164681,-0.47792374171890073,0.46908111781311645,0
519,0.02076000000000011,5.000049991798719,-0.498966277619025,0.4901553454088753,0
520,0.02079999999999993,5.000049991798719,-0.5144193895334618,0.5056402044936492,0
521,0.02083999999999997,5.000378781950543,-0.5288861323036679,0.5201387495952056,0
522,0.02088000000000001,5.001036362253937,-0.5403937683911195,0.5316782428608364,0
523,0.02092000000000005,5.000049991798719,-0.5469695603584757,0.5382859465385266,0
524,0.02096000000000009,4.99972120164681,-0.5519014042944771,0.5432497564018566,1
525,0.020999999999999908,4.99972120164681,-0.5515726146997985,0.5429529866358601,0
526,0.021039999999999948,4.999392411494816,-0.5489422979369439,0.5403547432869219,0
527,0.021079999999999988,5.000707572102282,-0.5430240851852817,0.5344686572178153,0
528,0.021120000000000028,5.000378781950543,-0.5351331347739482,0.52660988644061,0
529,0.021160000000000068,4.99972120164681,-0.5255982362449522,0.5171072201797782,0
530,0.021200000000000108,5.000378781950543,-0.515405758367891,0.5069470268869136,0
531,0.021239999999999926,4.99972120164681,-0.5045557011153876,0.49612930621617035,0
532,0.021279999999999966,4.999392411494816,-0.49304806445844596,0.48465405781962306,0
533,0.021320000000000006,5.000049991798719,-0.4812116379932484,0.47285007097406784,0
534,0.021360000000000046,5.000049991798719,-0.4680600528073354,0.4597309764472059,0
535,0.021400000000000086,4.999392411494816,-0.45523725702428275,0.4469407220423234,0
536,0.021439999999999904,5.000049991798719,-0.4430720403059273,0.4348080971005203,0
537,0.021479999999999944,5.000707572102282,-0.42959166478975774,0.421360363438104,0
538,0.021519999999999984,5.000378781950543,-0.4147961304049833,0.40659752066266175,0
539,0.021560000000000024,5.000378781950543,-0.4023021233625321,0.39413625466306157,0
540,0.021600000000000064,5.000378781950543,-0.3901369057787003,0.38200382723310633,0
541,0.021640000000000104,5.000049991798719,-0.37632773963402677,0.36822750003041227,0
542,0.02167999999999992,4.99972120164681,-0.36350494227329033,0.35543759007640885,0
543,0.02171999999999996,5.000378781950543,-0.35133972406362957,0.34330530741446313,0
544,0.02176,5.001036362253937,-0.3385169262804682,0.330515492995809,0
545,0.02180000000000004,5.000707572102282,-0.32766686644940096,0.3196984640214364,0
546,0.02184000000000008,5.000378781950543,-0.3204334931431985,0.31249816873909975,0
547,0.0218799999999999,5.000049991798719,-0.3112273815639322,0.3033251820254458,0
548,0.02191999999999994,4.99972120164681,-0.3043227978071483,0.2964537696501919,0
549,0.02195999999999998,5.000049991798719,-0.29807579340246787,0.29023998281672975,0
550,0.02200000000000002,5.000049991798719,-0.2938015272017184,0.2859989800502609,0
551,0.02204000000000006,5.000707572102282,-0.28952726097733944,0.28175802279620576,0
552,0.0220800000000001,4.999063621342738,-0.28623936386560334,0.2785034798634279,0
553,0.022119999999999918,5.000378781950543,-0.2836090461661699,0.2759065612237927,0
554,0.022159999999999958,5.000049991798719,-0.2806499387436445,0.2729808974137289,0
555,0.022199999999999998,5.000049991798719,-0.2770332518785735,0.26939769838522754,0
556,0.022240000000000038,5.000049991798719,-0.2763756724467517,0.26877365068515396,0
557,0.022280000000000078,4.999392411494816,-0.2750605135814391,0.2674920671174679,0
558,0.022319999999999895,5.000049991798719,-0.2721014061263543,0.2645665781962209,0
559,0.022359999999999935,4.99972120164681,-0.2697998780979539,0.26229871160783885,0
560,0.022399999999999975,5.000049991798719,-0.2665119809027278,0.25904451842842036,0
561,0.022440000000000015,5.000378781950543,-0.26256650425015443,0.25513278803669626,0
562,0.022480000000000055,4.99972120164681,-0.25960739674763533,0.2522074687089676,0
563,0.022520000000000095,5.000378781950543,-0.25763465840639543,0.2502685601250098,0
564,0.022559999999999913,4.99972120164681,-0.2546755508852022,0.2473433236117964,0
565,0.022599999999999953,5.000049991798719,-0.25204523307919086,0.24474691773232762,0
566,0.022639999999999993,5.000049991798719,-0.2507300741728716,0.2434657113386416,0
567,0.022680000000000033,5.000049991798719,-0.24974370499168314,0.24251333492337143,0
568,0.022720000000000073,4.99972120164681,-0.24875733580925313,0.24156099842700957,0
569,0.022760000000000113,4.99972120164681,-0.24974370499168314,0.24258143988219608,0
570,0.02279999999999993,5.000378781950543,-0.24974370499168314,0.24261555140785734,0
571,0.02283999999999997,4.999392411494816,-0.25040128444594667,0.2433072813065849,0
572,0.02288000000000001,5.000049991798719,-0.2513876536263073,0.24432783951579556,0
573,0.02292000000000005,5.001036362253937,-0.25401797143452803,0.24699238460252454,0
574,0.02296000000000009,5.000049991798719,-0.25631949950946953,0.24932817787059708,0
575,0.02299999999999991,4.999392411494816,-0.26026497619360855,0.25330795732715117,0
576,0.02303999999999995,5.001036362253937,-0.26289529397196426,0.25597261512156705,0
577,0.02307999999999999,5.000378781950543,-0.26914229866001865,0.26225399673339167,0
578,0.02312000000000003,5.000049991798719,-0.27571809301437356,0.26886420458299887,0
579,0.02316000000000007,5.000049991798719,-0.2826226770265821,0.27580323832542486,0
580,0.02320000000000011,5.000378781950543,-0.29117120952797193,0.284386256455195,0
581,0.023239999999999927,4.999063621342738,-0.3030076389893151,0.2962572071059971,0
582,0.023279999999999967,5.000378781950543,-0.3138576991692664,0.3071418236991236,0
583,0.023320000000000007,5.000049991798719,-0.3247077591960278,0.31802647502513914,0
584,0.023360000000000047,5.000049991798719,-0.3358866087598167,0.3292399504363529,0
585,0.023400000000000087,4.999063621342738,-0.3457502994154722,0.33913830114942867,0
586,0.023439999999999905,5.000378781950543,-0.35528520026110905,0.3487078959240425,0
587,0.023479999999999945,5.000049991798719,-0.3641625216304128,0.3576199447551821,0
588,0.023519999999999985,4.998077250885994,-0.3710671048456896,0.3645592886262006,0
589,0.023560000000000025,5.000378781950543,-0.3769853189799903,0.3705122962709446,0
590,0.023600000000000065,4.99972120164681,-0.37961563635810947,0.37317743967475714,0
591,0.023640000000000105,5.000378781950543,-0.3825747433975185,0.3761714049154143,0
592,0.023679999999999923,5.000378781950543,-0.3825747433975185,0.37620629495228164,0
593,0.023719999999999963,5.000707572102282,-0.3819171640564324,0.3755836371435104,0
594,0.023760000000000003,5.000049991798719,-0.3789580570144402,0.3726594827888765,0
595,0.023800000000000043,5.000378781950543,-0.37599894996083005,0.369735359237035,0
596,0.023840000000000083,5.000378781950543,-0.37205347387129495,0.36582489712282074,0
597,0.0238799999999999,4.99972120164681,-0.3707383151702016,0.36454478252952094,0
598,0.02391999999999994,4.999392411494816,-0.36613525969835226,0.3599768009566404,0
599,0.02395999999999998,5.000049991798719,-0.3618609938779859,0.3557376384849063,0
600,0.02400000000000002,5.000049991798719,-0.3582443073957605,0.3521560844592537,0
601,0.02404000000000006,4.999063621342738,-0.35495641057876876,0.3489033488648451,0
602,0.0240800000000001,4.99972120164681,-0.35133972406362957,0.3453218519961647,0
603,0.02411999999999992,4.99972120164681,-0.3473942478456647,0.3414115935062,0
604,0.02415999999999996,4.99972120164681,-0.34213361285655336,0.3361862039840998,0
605,0.0242,5.000049991798719,-0.33917450565921425,0.3332623696500606,0
606,0.02424000000000004,5.000378781950543,-0.33161234276943186,0.3257355066769565,0
607,0.02428000000000008,5.000049991798719,-0.32437896950050266,0.318537460034989,0
608,0.024319999999999897,5.000378781950543,-0.31615922706654886,0.3103530705950047,0
609,0.024359999999999937,5.001036362253937,-0.3049803772152234,0.2992095997612037,0
610,0.024399999999999977,4.999392411494816,-0.29182878894724706,0.28609341619068024,0
611,0.024440000000000017,5.000378781950543,-0.2750605135814391,0.2693605708584568,0
612,0.024480000000000057,5.000378781950543,-0.25533313033532373,0.2496686426380943,0
613,0.024520000000000097,5.000049991798719,-0.2342905876578798,0.22866157963444556,0
614,0.024559999999999915,5.000378781950543,-0.21061772647374233,0.20502422242786073,0
615,0.024599999999999955,5.000378781950543,-0.18497212606045715,0.17941414995144594,0
616,0.024639999999999995,4.99972120164681,-0.1583401555299606,0.1528177309725467,0
617,0.024680000000000035,4.999392411494816,-0.12940665568529136,0.12391980594946314,0
618,0.024720000000000075,4.999063621342738,-0.10178831396466272,0.09633706197552647,0
619,0.024759999999999893,5.000049991798719,-0.07384118151593398,0.06842554985357377,0
620,0.024799999999999933,5.000378781950543,-0.046551627744407784,0.04117163864374887,0
621,0.024839999999999973,5.000707572102282,-0.020248442542986647,0.01490411789366286,0
622,0.024880000000000013,5.000707572102282,0.0030956350107915753,-0.008404273664566753,0
623,0.024920000000000053,4.99972120164681,0.024466974178816228,-0.029739905638374642,0
624,0.024960000000000093,5.000707572102282,0.043865574808886185,-0.04910277822122644,0
625,0.02499999999999991,5.000707572102282,0.06162022661597208,-0.06682168147387696,0
626,0.02503999999999995,5.000049991798719,0.07542940049529606,-0.08059508663744636,0
627,0.02507999999999999,5.000049991798719,0.08595067597897872,-0.09108057359006277,0
628,0.02512000000000003,4.99972120164681,0.0971295313191825,-0.10222362093000192,0
629,0.02516000000000007,5.000378781950543,0.1033765387772625,-0.10843480126483446,0
630,0.02520000000000011,5.000378781950543,0.10732201719471773,-0.11234443378237313,0
631,0.02523999999999993,5.000049991798719,0.11028112601941528,-0.11526767827689277,0
632,0.02527999999999997,4.99972120164681,0.1112674956298565,-0.11621816547339314,0
633,0.02532000000000001,4.999392411494816,0.10765080706363755,-0.11256557675605566,0
634,0.02536000000000005,5.000049991798719,0.1033765387772625,-0.10825539092805297,0
635,0.02540000000000009,4.99972120164681,0.09778711104951865,-0.10263002861492054,0
636,0.025439999999999907,5.000378781950543,0.09351284281114798,-0.09831980909422366,0
637,0.025479999999999947,4.99972120164681,0.08693704556207577,-0.09170804421278206,0
638,0.025519999999999987,5.000378781950543,0.0813476179392533,-0.0860826329545088,0
639,0.025560000000000027,4.99972120164681,0.0770733497812526,-0.08177236550500122,0
640,0.025600000000000067,5.000049991798719,0.07016876280110178,-0.07483176392437246,0
641,0.025640000000000107,5.000049991798719,0.06655207440480995,-0.0711790459657724,0
642,0.025679999999999925,4.999392411494816,0.06556570484479929,-0.07015663222881652,0
643,0.025719999999999965,5.000049991798719,0.06359296572814185,-0.06814783466781837,0
644,0.025760000000000005,5.001036362253937,0.06293538602358648,-0.06745418259881336,0
645,0.025800000000000045,5.000049991798719,0.06457933528590981,-0.06906204592390602,0
646,0.025840000000000085,5.000378781950543,0.0672096541121064,-0.07165626558745686,0
647,0.025879999999999903,5.000049991798719,0.06983997294627126,-0.07425047238096066,0
648,0.025919999999999943,5.000378781950543,0.07214150193269635,-0.07651587679613936,0
649,0.025959999999999983,5.000378781950543,0.07641577006649763,-0.08075400817556466,0
650,0.026000000000000023,4.99972120164681,0.08036124836247038,-0.08466333788150959,0
651,0.026040000000000063,4.99972120164681,0.08233398751715135,-0.08659991695800667,0
652,0.026080000000000103,5.000049991798719,0.08397793681612514,-0.0882076950381504,0
653,0.02611999999999992,5.000378781950543,0.08397793681612514,-0.08817151302619369,0
654,0.02615999999999996,5.000049991798719,0.08364914695608275,-0.08780653070859368,0
655,0.0262,5.000049991798719,0.08233398751715135,-0.08645516871403192,0
656,0.02624000000000004,4.99972120164681,0.07805971935431567,-0.08214468824501958,0
657,0.02628000000000008,5.000707572102282,0.07477182078178243,-0.07882056796328363,0
658,0.0263199999999999,5.000378781950543,0.07214150193269635,-0.07615401834947927,0
659,0.02635999999999994,4.99972120164681,0.06918239323698341,-0.073158670181029,0
660,0.02639999999999998,4.999392411494816,0.06523691499171154,-0.06917694410247888,0
661,0.02644000000000002,5.000049991798719,0.06490812513874837,-0.06881189840315255,0
662,0.02648000000000006,5.002680313010939,0.06227780631952985,-0.06614531607191493,0
663,0.0265200000000001,4.99972120164681,0.061291436764380286,-0.06512267568648855,0
664,0.026559999999999917,5.000049991798719,0.059647487508292976,-0.06344244862922954,0
665,0.026599999999999957,4.999392411494816,0.05931869765744993,-0.0630773743536438,0
666,0.026639999999999997,4.99972120164681,0.05997627735926084,-0.06369866335442248,0
667,0.026680000000000037,5.001036362253937,0.05997627735926084,-0.06366236672433606,0
668,0.026720000000000077,5.000049991798719,0.05997627735926084,-0.06362606451238129,0
669,0.026759999999999895,5.001365152405508,0.06162022661597208,-0.0652337063224018,0
670,0.026799999999999935,5.000707572102282,0.05866111795613836,-0.06223828532821682,0
671,0.026839999999999975,5.001036362253937,0.061291436764380286,-0.06483228726146126,0
672,0.026880000000000015,4.99972120164681,0.05997627735926084,-0.06348080678764798,0
673,0.026920000000000055,5.000378781950543,0.06030506721035353,-0.06377327172323222,0
674,0.026960000000000095,5.000378781950543,0.0626065961714958,-0.06603847226886106,0
675,0.026999999999999913,4.999063621342738,0.061949016467688606,-0.06534456099626915,0
676,0.027039999999999953,5.000049991798719,0.06589449469801162,-0.06925370485118962,0
677,0.027079999999999993,5.002022732708393,0.06326417587580183,-0.06658704919352873,0
678,0.027120000000000033,4.999392411494816,0.06688086425839593,-0.07016739862710389,0
679,0.027160000000000073,5.000049991798719,0.06523691499171154,-0.06848710864422095,0
680,0.027200000000000113,5.001365152405508,0.06688086425839593,-0.07009471577381857,0
681,0.02723999999999993,4.999392411494816,0.06786723381990087,-0.07104474212353937,0
682,0.02727999999999997,5.001693942556992,0.06589449469801162,-0.06903565906125489,0
683,0.02732000000000001,5.002022732708393,0.06392175558060653,-0.0670265756208214,0
684,0.02736000000000005,4.997419670581074,0.06852481352819326,-0.07159328920861205,0
685,0.02740000000000009,5.001693942556992,0.06951118309156513,-0.07254331472116998,0
686,0.02743999999999991,5.002022732708393,0.07247029178839723,-0.07546608002180041,0
687,0.02747999999999995,5.000378781950543,0.07542940049529606,-0.07838884633261639,0
688,0.02751999999999999,5.000049991798719,0.07477182078178243,-0.07769492556851762,0
689,0.02756000000000003,5.000049991798719,0.0757581903522391,-0.07864495577913427,0
690,0.02760000000000007,5.000707572102282,0.07773092949650393,-0.08058135759941593,0
691,0.02764000000000011,5.000049991798719,0.07904608892849513,-0.08186018208825252,0
692,0.027679999999999927,5.000049991798719,0.08101882808020172,-0.08379658902246076,0
693,0.027719999999999967,5.000378781950543,0.08364914695608275,-0.08639057875117931,0
694,0.027760000000000007,5.000049991798719,0.08463551653658133,-0.08734062259937903,0
695,0.027800000000000047,5.000049991798719,0.08956736445577489,-0.09223614854550907,0
696,0.027840000000000087,5.000049991798719,0.09121131376835284,-0.09384377998847043,0
697,0.027879999999999905,5.000378781950543,0.09384163267489809,-0.09643778547289364,0
698,0.027919999999999945,5.000378781950543,0.09811590091487153,-0.10067574508211927,0
699,0.027959999999999985,4.999392411494816,0.10041742997579037,-0.10294097064737229,0
700,0.028000000000000025,4.99972120164681,0.10370532864470776,-0.10619257129923793,0
701,0.028040000000000065,5.000049991798719,0.10534927798377816,-0.10780022844322268,0
702,0.028080000000000105,5.000378781950543,0.10929475641007817,-0.11170942083957136,0
703,0.028119999999999923,4.99972120164681,0.11093870575958677,-0.1133170906672433,0
704,0.028159999999999963,5.000378781950543,0.11521297408265467,-0.11755508631937786,0
705,0.028200000000000003,4.999392411494816,0.11718571331566852,-0.11949156007495465,0
706,0.028240000000000043,4.99972120164681,0.12014482217344924,-0.12241441099118858,0
707,0.028280000000000083,5.000378781950543,0.12244635129190345,-0.12467969004617721,0
708,0.0283199999999999,5.000707572102282,0.12441909054105722,-0.12661618745193032,0
709,0.02835999999999994,4.99972120164681,0.12672061967062423,-0.12888148329993493,0
710,0.02839999999999998,5.000378781950543,0.13066609819235642,-0.13279073744350162,0
711,0.02844000000000002,4.99972120164681,0.13231004758158987,-0.1343984716993069,0
712,0.02848000000000006,5.000378781950543,0.13526915648987867,-0.13732137506002332,0
713,0.0285200000000001,5.000707572102282,0.13592673624861432,-0.13794275919793472,0
714,0.02855999999999992,5.002351522859708,0.13954342493035102,-0.14152326252625824,0
715,0.02859999999999996,4.99972120164681,0.13954342493035102,-0.1414870877806857,0
716,0.02864,4.99972120164681,0.1421737439808442,-0.14408124303363917,0
717,0.02868000000000004,4.99972120164681,0.1444752731563955,-0.14634661969963372,0
718,0.02872000000000008,4.99972120164681,0.14579043268794922,-0.14762563834931788,0
719,0.028759999999999897,5.000049991798719,0.14809196187283277,-0.14989103861947378,0
720,0.028799999999999937,4.99972120164681,0.14809196187283277,-0.14985492201108894,0
721,0.028839999999999977,5.000049991798719,0.14940712140971585,-0.15113397758487324,0
722,0.028880000000000017,5.000707572102282,0.15006470117888354,-0.15175546637491052,0
723,0.028920000000000057,4.99972120164681,0.15006470117888354,-0.15171938871816573,0
724,0.028960000000000097,5.000378781950543,0.15039349106364885,-0.1520121146067204,0
725,0.028999999999999915,5.000049991798719,0.14940712140971585,-0.1509896949549864,0
726,0.029039999999999955,5.000707572102282,0.15006470117888354,-0.15161123906236124,0
727,0.029079999999999995,5.000049991798719,0.14940712140971585,-0.15091763830472657,0
728,0.029120000000000035,5.000049991798719,0.1474343821051176,-0.14890889302202032,0
729,0.029160000000000075,5.000378781950543,0.14513285292192996,-0.1465713732078278,0
730,0.029200000000000115,5.000707572102282,0.14381769339134592,-0.1452202387297931,0
731,0.029239999999999933,4.99972120164681,0.14316011362678138,-0.14452670003748613,0
732,0.029279999999999973,5.000378781950543,0.1421737439808442,-0.1435043878193678,0
733,0.029320000000000013,5.000049991798719,0.1418449540991078,-0.14313967205655978,0
734,0.029360000000000053,5.000049991798719,0.1408585844546266,-0.14211739355735606,0
735,0.029400000000000093,5.000707572102282,0.1398722148112378,-0.141095132420521,0
736,0.02943999999999991,5.000378781950543,0.1382282654080184,-0.13941530921974266,0
737,0.02947999999999995,5.000378781950543,0.1382282654080184,-0.1393794534523621,0
738,0.02951999999999999,5.000378781950543,0.13855705528841938,-0.13967240592952812,0
739,0.02956000000000003,5.000378781950543,0.13855705528841938,-0.13963658722407823,0
740,0.02960000000000007,5.000378781950543,0.13789947552773896,-0.1389432077890406,0
741,0.02964000000000011,5.000049991798719,0.13757068564758101,-0.1385786375985901,0
742,0.02967999999999993,5.000378781950543,0.13855705528841938,-0.13952924662583296,0
743,0.02971999999999997,4.998406041038327,0.1382282654080184,-0.1391647161608226,0
744,0.02976000000000001,5.000049991798719,0.13855705528841938,-0.13945778581754212,0
745,0.02980000000000005,5.000378781950543,0.1415161642174927,-0.14238119521545242,0
746,0.02984000000000009,5.000049991798719,0.1415161642174927,-0.14234551670804377,0
747,0.029879999999999907,5.000378781950543,0.14283132374468102,-0.14362501908245512,0
748,0.029919999999999947,4.99972120164681,0.1441464832738101,-0.144904543143954,0
749,0.029959999999999987,5.001365152405508,0.1441464832738101,-0.14486892969161982,0
750,0.030000000000000027,4.998077250885994,0.14611922257114063,-0.146806077881692,0
751,0.030040000000000067,5.000049991798719,0.145461642804879,-0.14611292968265405,0
752,0.030080000000000107,5.000378781950543,0.145461642804879,-0.1460773842533886,0
753,0.030119999999999925,5.000049991798719,0.14611922257114063,-0.14669944192254328,0
754,0.030159999999999965,5.000049991798719,0.14611922257114063,-0.14666394348585732,0
755,0.030200000000000005,5.000049991798719,0.14710559222144168,-0.14761483868776681,0
756,0.030240000000000045,5.000378781950543,0.14710559222144168,-0.14757938855514996,0
757,0.030280000000000085,4.99972120164681,0.1474343821051176,-0.14787275294906718,0
758,0.030319999999999903,5.001693942556992,0.14710559222144168,-0.1475085625451733,0
759,0.030359999999999943,5.001036362253937,0.14644801245445316,-0.1468156075537855,0
760,0.030399999999999983,5.000049991798719,0.14611922257114063,-0.14645146806776194,0
761,0.030440000000000023,5.000378781950543,0.14710559222144168,-0.14740251406249735,0
762,0.030480000000000063,5.000378781950543,0.14644801245445316,-0.1467096369121298,0
763,0.030520000000000103,5.000378781950543,0.14579043268794922,-0.14601678635905518,0
764,0.03055999999999992,5.000378781950543,0.1441464832738101,-0.14433759307935212,0
765,0.03059999999999996,5.003009103162085,0.14348890350900304,-0.14364479669375907,0
766,0.03064,5.001036362253937,0.1418449540991078,-0.1419656582311958,0
767,0.03068000000000004,4.99972120164681,0.13855705528841938,-0.13864259825886216,0
768,0.03072000000000008,4.999392411494816,0.13954342493035102,-0.13959383495263694,0
769,0.0307599999999999,5.000378781950543,0.13789947552773896,-0.13791478113737923,0
770,0.03079999999999994,4.99972120164681,0.1355979463691857,-0.13557817642326814,0
771,0.03083999999999998,5.000378781950543,0.13494036661069325,-0.13488555028743254,0
772,0.03088000000000002,5.000707572102282,0.13296762733813555,-0.13287779413641967,0
773,0.03092000000000006,5.000378781950543,0.13231004758158987,-0.13218522732052257,0
774,0.0309600000000001,4.999392411494816,0.13066609819235642,-0.13050632101079596,0
775,0.030999999999999917,5.000049991798719,0.12967972856027796,-0.1294850249163721,0
776,0.031039999999999957,5.000378781950543,0.1300085184375156,-0.1297789191082332,0
777,0.031079999999999997,5.000378781950543,0.12935093868316216,-0.12908647476382107,0
778,0.031120000000000037,4.99972120164681,0.12803577917591782,-0.1277364820797089,0
779,0.031160000000000077,5.000707572102282,0.12770698929941152,-0.12737289075691868,0
780,0.031199999999999894,5.001365152405508,0.12606303991870926,-0.1256941719774261,0
781,0.031239999999999934,4.99972120164681,0.12540546016728232,-0.12500185519112467,0
782,0.031279999999999974,5.000378781950543,0.12540546016728232,-0.12496715083609698,0
783,0.031320000000000014,5.000378781950543,0.1234327209159308,-0.12295974022500059,0
784,0.031360000000000054,5.000378781950543,0.12244635129190345,-0.12193873255144855,0
785,0.031400000000000095,5.000049991798719,0.12080240192096793,-0.1202601787556435,0
786,0.03143999999999991,5.000049991798719,0.12047361204714746,-0.11989681839553734,0
787,0.03147999999999995,5.000049991798719,0.12080240192096793,-0.1201910720350748,0
788,0.03151999999999999,5.000707572102282,0.12047361204714746,-0.11982778049187959,0
789,0.03156000000000003,5.000049991798719,0.12014482217344924,-0.11946452382610358,0
790,0.03160000000000007,5.000707572102282,0.12211756141747197,-0.12140283146721323,0
791,0.03164000000000011,4.999392411494816,0.12310393104113287,-0.12235480498846898,0
792,0.03167999999999993,5.000378781950543,0.12441909054105722,-0.12363560419731136,0
793,0.03171999999999997,5.000049991798719,0.12606303991870926,-0.1252452294054878,0
794,0.03176000000000001,5.001365152405508,0.12639182979460575,-0.1255397315432629,0
795,0.03180000000000005,5.001693942556992,0.12672061967062423,-0.12583427042172302,0
796,0.03184000000000009,4.999392411494816,0.12770698929941152,-0.12678642610218066,0
797,0.03187999999999991,5.000049991798719,0.12737819942302714,-0.12642345963481433,0
798,0.03191999999999995,4.99972120164681,0.12737819942302714,-0.12638932070874892,0
799,0.03195999999999999,5.000049991798719,0.12737819942302714,-0.12635521975461522,0
800,0.03200000000000003,5.000049991798719,0.12836456905254606,-0.12730752670839002,0
801,0.03204000000000007,4.99972120164681,0.12803577917591782,-0.1269447127403044,0
802,0.03208000000000011,4.999392411494816,0.12639182979460575,-0.12526677815715423,0
803,0.032119999999999926,4.99972120164681,0.12606303991870926,-0.12490404227380361,0
804,0.032159999999999966,4.99972120164681,0.1257342500429348,-0.12454134588915212,0
805,0.032200000000000006,4.99972120164681,0.12540546016728232,-0.124178689306818,0
806,0.032240000000000046,5.000378781950543,0.12474788041634353,-0.12348728295443262,0
807,0.032280000000000086,4.99972120164681,0.12441909054105722,-0.12312470688539257,0
808,0.032319999999999904,4.99972120164681,0.12310393104113287,-0.12177580190127943,0
809,0.032359999999999944,5.000049991798719,0.12277514116645709,-0.12141330755326288,0
810,0.032399999999999984,4.99972120164681,0.12178877154316266,-0.1203932747681662,0
811,0.032440000000000024,4.99972120164681,0.12310393104113287,-0.12167481271596722,0
812,0.032480000000000064,5.000049991798719,0.12244635129190345,-0.12098365332769656,0
813,0.032520000000000104,5.000049991798719,0.12113119179491064,-0.11963495640168231,0
814,0.03255999999999992,4.99972120164681,0.12145998166897555,-0.11993025135503105,0
815,0.03259999999999996,5.000707572102282,0.12178877154316266,-0.12022558911448271,0
816,0.03264,5.000049991798719,0.12113119179491064,-0.11953460035453786,0
817,0.03268000000000004,5.000049991798719,0.12080240192096793,-0.11917244486838979,0
818,0.03272000000000008,5.000049991798719,0.12047361204714746,-0.11881033307767572,0
819,0.0327599999999999,5.000049991798719,0.12178877154316266,-0.12009221464730907,0
820,0.03279999999999994,4.99972120164681,0.12145998166897555,-0.11973019113182427,0
821,0.03283999999999998,5.000378781950543,0.12047361204714746,-0.11871063244772388,0
822,0.03288000000000002,5.000378781950543,0.12080240192096793,-0.11900627813160411,0
823,0.03292000000000006,4.99972120164681,0.12080240192096793,-0.11897317910666481,0
824,0.0329600000000001,4.997748460733576,0.12047361204714746,-0.11861133566493363,0
825,0.03299999999999992,5.000049991798719,0.12113119179491064,-0.11923590759319773,0
826,0.03303999999999996,4.99972120164681,0.11981603229987327,-0.11788778631780782,0
827,0.03308,4.99972120164681,0.12113119179491064,-0.11917003036172256,0
828,0.03312000000000004,5.000049991798719,0.12113119179491064,-0.1191371615292582,0
829,0.03316000000000008,5.000049991798719,0.12178877154316266,-0.11976191935247436,0
830,0.033199999999999896,5.000049991798719,0.12244635129190345,-0.1203867243717168,0
831,0.033239999999999936,4.998406041038327,0.12211756141747197,-0.12002520725076898,0
832,0.033279999999999976,5.000707572102282,0.12244635129190345,-0.12032131764844287,0
833,0.033320000000000016,5.000049991798719,0.12277514116645709,-0.12061747610210355,0
834,0.033360000000000056,5.000378781950543,0.12376151079085085,-0.12157126264690062,0
835,0.033400000000000096,4.99972120164681,0.12606303991870926,-0.12384025732121273,0
836,0.033439999999999914,5.000049991798719,0.12639182979460575,-0.12413656165368668,0
837,0.033479999999999954,4.99972120164681,0.12737819942302714,-0.12509049493219865,0
838,0.033519999999999994,5.000707572102282,0.12737819942302714,-0.12505810805850398,0
839,0.033560000000000034,5.001036362253937,0.12737819942302714,-0.12502577094303466,0
840,0.033600000000000074,4.999392411494816,0.12639182979460575,-0.12400711423868536,0
841,0.033640000000000114,5.000049991798719,0.12737819942302714,-0.12496124711133862,0
842,0.03367999999999993,4.999392411494816,0.12737819942302714,-0.12492906095564753,0
843,0.03371999999999997,5.000707572102282,0.1286933589292962,-0.12621208518551558,0
844,0.03376000000000001,4.999392411494816,0.12836456905254606,-0.12585121119016007,0
845,0.03380000000000005,5.000049991798719,0.12935093868316216,-0.12680554813776138,0
846,0.03384000000000009,5.002351522859708,0.12935093868316216,-0.126773567167418,0
847,0.03387999999999991,5.000049991798719,0.12803577917591782,-0.1254264786788654,0
848,0.03391999999999995,5.000378781950543,0.12639182979460575,-0.1237506525809232,0
849,0.03395999999999999,5.000707572102282,0.12672061967062423,-0.12404761827990916,0
850,0.03400000000000003,5.000049991798719,0.12376151079085085,-0.12105673803689333,0
851,0.03404000000000007,5.000049991798719,0.12277514116645709,-0.12003865013650956,0
852,0.03408000000000011,4.99972120164681,0.12211756141747197,-0.11934940547151596,0
853,0.03411999999999993,5.000049991798719,0.12145998166897555,-0.1186602144389851,0
854,0.03415999999999997,5.000049991798719,0.12113119179491064,-0.11829986718411235,0
855,0.03420000000000001,5.000378781950543,0.12014482217344924,-0.11728199435557903,0
856,0.03424000000000005,4.99972120164681,0.11981603229987327,-0.11692175571842972,0
857,0.03428000000000009,5.000378781950543,0.11948724242641957,-0.11656157179391395,0
858,0.034319999999999906,5.000378781950543,0.1181720829338278,-0.11521507323103085,0
859,0.034359999999999946,5.000378781950543,0.11751450318826591,-0.1145262096634517,0
860,0.034399999999999986,5.000049991798719,0.11784329306098568,-0.11482377122917233,0
861,0.034440000000000026,5.000707572102282,0.11619934369861068,-0.11314864934079814,0
862,0.034480000000000066,5.000049991798719,0.1158705538265029,-0.11278874298890776,0
863,0.034520000000000106,4.99972120164681,0.11554176395451755,-0.11242889294780467,0
864,0.034559999999999924,5.000378781950543,0.11521297408265467,-0.11206909948116589,0
865,0.034599999999999964,5.000049991798719,0.11455539433929632,-0.1113805729802761,0
866,0.034640000000000004,4.999392411494816,0.11324023485404966,-0.11003452383686771,0
867,0.034680000000000044,4.99972120164681,0.11060991588943969,-0.10737337257481054,0
868,0.034720000000000084,5.000707572102282,0.11028112601941528,-0.10701380802861453,0
869,0.0347599999999999,5.000707572102282,0.10830838680184553,-0.10501035201592299,0
870,0.03479999999999994,5.000049991798719,0.10699322732592072,-0.10366453388491012,0
871,0.03483999999999998,4.999392411494816,0.10534927798377816,-0.10198998428590382,0
872,0.03488000000000002,5.000049991798719,0.10502048811571825,-0.10163065281659892,0
873,0.03492000000000006,4.99972120164681,0.10469169824778124,-0.10127138025963092,0
874,0.0349600000000001,4.99972120164681,0.1033765387772625,-0.09992579726808823,0
875,0.03499999999999992,5.001365152405508,0.10370532864470776,-0.10022422303750453,0
876,0.03503999999999996,5.002351522859708,0.1033765387772625,-0.09986512874920486,0
877,0.03508,5.000049991798719,0.10534927798377816,-0.10180762346540931,0
878,0.03512000000000004,5.000378781950543,0.10567806785196096,-0.10210622902637866,0
879,0.03516000000000008,5.000707572102282,0.10633564758869515,-0.10273368489073488,0
880,0.0351999999999999,4.999392411494816,0.10995233614951355,-0.10632031026492875,0
881,0.03523999999999994,4.99972120164681,0.10830838680184553,-0.10464635866648529,0
882,0.03527999999999998,4.99972120164681,0.10896596654054455,-0.10527399733952805,0
883,0.03532000000000002,5.000049991798719,0.10863717667113368,-0.10491532783802174,0
884,0.03536000000000006,4.999063621342738,0.10797959693268015,-0.1042279301486437,0
885,0.0354000000000001,5.000049991798719,0.11093870575958677,-0.10715728295257239,0
886,0.035439999999999916,5.001036362253937,0.10666443745724652,-0.10285332080113929,0
887,0.035479999999999956,4.997419670581074,0.10929475641007817,-0.10545400832386151,0
888,0.035519999999999996,4.998734831190575,0.10403411851227598,-0.10016380165918864,0
889,0.035560000000000036,4.998734831190575,0.10239016917566456,-0.09849034646235486,0
890,0.035600000000000076,4.99972120164681,0.10403411851227598,-0.10010485308795333,0
891,0.035639999999999894,4.999392411494816,0.10469169824778124,-0.10073305350336512,0
892,0.035679999999999934,4.99972120164681,0.1033765387772625,-0.09938857834452852,0
893,0.035719999999999974,5.001693942556992,0.10107500970858954,-0.09705779745931281,0
894,0.035760000000000014,5.000707572102282,0.09351284281114798,-0.08946644285624346,0
895,0.035800000000000054,4.999063621342738,0.09121131376835284,-0.08713579045701288,0
896,0.035840000000000094,5.000707572102282,0.08825220500793643,-0.08414762292676584,0
897,0.03587999999999991,5.000707572102282,0.08529309625753255,-0.08115952022968098,0
898,0.03591999999999995,5.001365152405508,0.0813476179392533,-0.07718511302354483,0
899,0.03595999999999999,5.000049991798719,0.07641577006649763,-0.07222440155655774,0
900,0.03600000000000003,5.000049991798719,0.07115513236633955,-0.06693496578971926,0
901,0.03604000000000007,4.99972120164681,0.06852481352819326,-0.06427591464549094,0
902,0.03608000000000011,5.000378781950543,0.061291436764380286,-0.0570138715683606,0
903,0.03611999999999993,5.000378781950543,0.05570200930641887,-0.05139584402112919,0
904,0.03615999999999997,5.000378781950543,0.04978379203736312,-0.04544909311724714,0
905,0.03620000000000001,5.001693942556992,0.04287920527475757,-0.038516039403766356,0
906,0.03624000000000005,4.999063621342738,0.036303408409458296,-0.031911842500159215,0
907,0.03628000000000009,4.99972120164681,0.030056401434036775,-0.02563650262671993,0
908,0.03631999999999991,4.99972120164681,0.025124553854007567,-0.020676389515789928,0
909,0.03635999999999995,4.99972120164681,0.01821996728971463,-0.013743605013641663,0
910,0.03639999999999999,5.000378781950543,0.014274489278030808,-0.009769996882175613,0
911,0.03644000000000003,5.000378781950543,0.009671431620803153,-0.005138877147363247,0
912,0.03648000000000007,5.002022732708393,0.00506837398845672,-0.0005078257028482969,0
913,0.03652000000000011,5.000378781950543,0.001122896037706475,0.003465577572343753,0
914,0.036559999999999926,5.001036362253937,-0.0015074225859438989,0.006123752811309308,0
915,0.036599999999999966,5.000049991798719,-0.005124110680146385,0.009768228591213929,0
916,0.036640000000000006,4.99972120164681,-0.006110480157705198,0.010782316605291109,0
917,0.036680000000000046,5.000707572102282,-0.00939837840793746,0.014097864024205403,0
918,0.036720000000000086,4.99972120164681,-0.008412008934208556,0.013139074133590167,0
919,0.036759999999999904,5.000707572102282,-0.0113711173519455,0.016125692332063207,0
920,0.036799999999999944,4.99972120164681,-0.013343856291351444,0.018125871033943752,0
921,0.036839999999999984,4.999392411494816,-0.01597417487006185,0.0207835591419106,0
922,0.036880000000000024,5.000378781950543,-0.018275703619711994,0.02311238697357207,0
923,0.036920000000000064,5.000378781950543,-0.020248442542986647,0.025112354318518104,0
924,0.036960000000000104,5.000049991798719,-0.023536340738185738,0.02842741006288818,0
925,0.03699999999999992,5.000049991798719,-0.027481818555480722,0.03239997434563016,0
926,0.03703999999999996,5.000049991798719,-0.03142729635426868,0.03637246731585675,0
927,0.03708,4.998734831190575,-0.035701563948709644,0.04067367857838522,0
928,0.03712000000000004,5.000378781950543,-0.04030462133375036,0.045303607919763705,0
929,0.03716000000000008,5.000378781950543,-0.045565258314247556,0.050591044937396634,0
930,0.0371999999999999,4.99972120164681,-0.04951073602790314,0.05456325056248246,0
931,0.03723999999999994,4.999392411494816,-0.05510016275699865,0.060179332871750535,0
932,0.03727999999999998,5.000378781950543,-0.06036079964426265,0.06546655280333072,0
933,0.03732000000000002,5.000378781950543,-0.06496385689333826,0.07009612035722321,0
934,0.03736000000000006,5.000707572102282,-0.06825175491278114,0.07341045573929814,0
935,0.0374000000000001,4.99972120164681,-0.07121086311914367,0.07639592816438187,0
936,0.03743999999999992,5.000049991798719,-0.07285481211811588,0.0780661680374006,0
937,0.03747999999999996,5.000049991798719,-0.07581392030804664,0.08105149355690366,0
938,0.03752,5.000049991798719,-0.07416997131494572,0.07943368815006846,0
939,0.03756000000000004,5.000707572102282,-0.07351239171679176,0.0788021781970101,0
940,0.03760000000000008,5.000049991798719,-0.07285481211811588,0.07817059410536764,0
941,0.037639999999999896,4.99972120164681,-0.06923812431607472,0.07457982747637854,0
942,0.037679999999999936,4.999392411494816,-0.06595022630053791,0.07131777610496848,0
943,0.037719999999999976,4.99972120164681,-0.06003200983978245,0.06542533156544733,0
944,0.037760000000000016,5.000378781950543,-0.05608653217589139,0.06150555090691029,0
945,0.037800000000000056,5.000049991798719,-0.05082589526164695,0.05627053589013273,0
946,0.037840000000000096,5.000049991798719,-0.04523646850393555,0.05070665573097721,0
947,0.037879999999999914,5.000707572102282,-0.04129099077011207,0.04678664910675939,0
948,0.037919999999999954,5.000049991798719,-0.035043984320212454,0.04056503808846293,0
949,0.037959999999999994,4.999063621342738,-0.02781060837275358,0.033356981706540834,0
950,0.038000000000000034,5.000049991798719,-0.021234812002893247,0.026806428849077635,0
951,0.038040000000000074,5.000378781950543,-0.012686276645394332,0.018283060764754944,0
952,0.038080000000000114,5.000049991798719,-0.006110480157705198,0.011732355125933985,0
953,0.03811999999999993,5.000378781950543,0.0007941062093044515,0.004852782999393387,0
954,0.03815999999999997,5.000378781950543,0.007369902801517392,-0.0016980761438429998,0
955,0.03820000000000001,5.000049991798719,0.011972960446309217,-0.0062762733132445125,0
956,0.03824000000000005,5.000378781950543,0.01295932994485767,-0.007237859491080981,0
957,0.03828000000000009,5.002351522859708,0.01328811977796078,-0.007541943338239099,0
958,0.03831999999999991,5.000049991798719,0.011972960446309217,-0.006202155534493131,0
959,0.03835999999999995,5.000049991798719,0.0076986926324629085,-0.0019033369404798106,0
960,0.03839999999999999,4.99972120164681,0.0014516858662357995,0.004368142736918504,0
961,0.03844000000000003,4.99972120164681,-0.008412008934208556,0.01425623240347984,0
962,0.03848000000000007,4.99972120164681,-0.018933283261316228,0.02480182337660347,0
963,0.03852000000000011,4.999063621342738,-0.03274245561641449,0.038635233983583095,0
964,0.03855999999999993,5.000707572102282,-0.048853156410254436,0.05477009446215114,0
965,0.03859999999999997,5.000707572102282,-0.06463506709067811,0.0705760860881477,0
966,0.03864000000000001,5.000049991798719,-0.08107455706402487,0.08703957809692794,0
967,0.03868000000000005,5.000378781950543,-0.09751404671038476,0.10350299069861754,0
968,0.03872000000000009,4.99972120164681,-0.11395353602801415,0.11996632372252947,0
969,0.038759999999999906,4.99972120164681,-0.12940665568529136,0.13544320766912138,0
970,0.038799999999999946,5.000378781950543,-0.14321582619461398,0.14927606288389478,0
971,0.038839999999999986,4.99972120164681,-0.15603862717110994,0.1621224688161072,0
972,0.038880000000000026,5.000707572102282,-0.16491595080474653,0.1710233174908835,0
973,0.038920000000000066,4.999392411494816,-0.17116295626601774,0.17729376791490414,0
974,0.038960000000000106,4.99972120164681,-0.17247811530430668,0.17863229167476935,0
975,0.038999999999999924,5.000049991798719,-0.169190217704546,0.17536767839366124,0
976,0.039039999999999964,5.000707572102282,-0.1603128941180325,0.16651355856215916,0
977,0.039080000000000004,5.000049991798719,-0.14913404205518838,0.15535782953100294,0
978,0.039120000000000044,4.99972120164681,-0.13137939434385165,0.13762622396938518,0
979,0.039160000000000084,4.99972120164681,-0.11230958711109378,0.11857937784677072,0
980,0.0391999999999999,4.99972120164681,-0.08863672234206758,0.09492939299174635,0
981,0.03923999999999994,5.000049991798719,-0.06101837925283336,0.06733384846484824,0
982,0.03927999999999998,5.000049991798719,-0.03274245561641449,0.0390806418846196,0
983,0.03932000000000002,5.000049991798719,-0.005452900506126915,0.011813722170941232,0
984,0.03936000000000006,5.000378781950543,0.026110923367741706,-0.019727548118288044,0
985,0.0394000000000001,4.99972120164681,0.05570200930641887,-0.049296162435636996,0
986,0.03943999999999992,4.998406041038327,0.08496430639699507,-0.07853607001848836,0
987,0.03947999999999996,5.000049991798719,0.11258265511216159,-0.10613211148877548,0
988,0.03952,5.000049991798719,0.13954342493035102,-0.13307065647312147,0
989,0.03956000000000004,4.999392411494816,0.16453145622281592,-0.1580365454899168,0
990,0.03960000000000008,4.99972120164681,0.18787553871644425,-0.1813585684121335,0
991,0.0396399999999999,4.99972120164681,0.20826051265398074,-0.20172156562754565,0
992,0.03967999999999994,4.99972120164681,0.2296318567873061,-0.22307101603200769,0
993,0.03971999999999998,4.998077250885994,0.24541377277417437,-0.23883112142619078,0
994,0.03976000000000002,5.000049991798719,0.2611956890304813,-0.2545913103678501,0
995,0.03980000000000006,5.000049991798719,0.27632002569418057,-0.26969400313573977,0
996,0.0398400000000001,5.000049991798719,0.28947162299198576,-0.28282404009631334,0
997,0.039879999999999916,5.000049991798719,0.3009792707786314,-0.2943102112429842,0
998,0.039919999999999956,5.000378781950543,0.310185389109042,-0.3034949367682929,0
999,0.039959999999999996,4.99972120164681,0.31676118797131,-0.31004942679688474,0
1000,0.040000000000000036,5.000049991798719,0.3239945667724302,-0.31726158087124234,0
1001,0.040040000000000076,5.000378781950543,0.32761125619361986,-0.3208571298070044,0
1002,0.040080000000000116,5.000378781950543,0.32695367629783645,-0.32017849380048313,0
1003,0.040119999999999933,5.000049991798719,0.3272824662456714,-0.32048631214455536,0
1004,0.040159999999999973,5.000378781950543,0.3236657768257307,-0.31684873575904277,0
1005,0.040200000000000014,4.99972120164681,0.3200490874195386,-0.3132112441556144,0
1006,0.040240000000000054,5.000378781950543,0.31248691870564554,-0.30562835814189326,0
1007,0.040280000000000094,5.000049991798719,0.3039383802321952,-0.2970591873940224,0
1008,0.04031999999999991,5.000378781950543,0.29440347202617895,-0.2875037320659187,0
1009,0.04035999999999995,5.000378781950543,0.28125187465922435,-0.2743316728550602,0
1010,0.04039999999999999,4.99972120164681,0.269415437186839,-0.2624748589417286,0
1011,0.04044000000000003,5.000049991798719,0.25922294948376073,-0.2522620803243588,0
1012,0.04048000000000007,5.000707572102282,0.24607135261281843,-0.23909027818839856,0
1013,0.04052000000000011,5.000049991798719,0.23357733575867895,-0.22657614184005387,0
1014,0.04055999999999993,5.000049991798719,0.2204257392533413,-0.21340451173178238,0
1015,0.04059999999999997,5.000049991798719,0.20661656312595558,-0.1995753880121112,0
1016,0.04064000000000001,5.000049991798719,0.1937937569092451,-0.18673272033205823,0
1017,0.04068000000000005,5.000049991798719,0.1819573205623241,-0.17487650876794922,0
1018,0.04072000000000009,5.000378781950543,0.16913451469481428,-0.16203401404553322,0
1019,0.04075999999999991,5.000378781950543,0.15861323822206289,-0.1514931351952001,0
1020,0.04079999999999995,5.000378781950543,0.14611922257114063,-0.13897960375797752,0
1021,0.04083999999999999,4.99972120164681,0.1369131058876297,-0.12975405799231798,0
1022,0.04088000000000003,5.000049991798719,0.12606303991870926,-0.1188846497571835,0
1023,0.04092000000000007,5.000378781950543,0.11619934369861068,-0.10900169819749975,0
1024,0.04096000000000011,5.000378781950543,0.10732201719471773,-0.10010520339025573,0
1025,0.040999999999999925,4.99972120164681,0.10008864010957542,-0.09285274514651148,0
1026,0.041039999999999965,5.000049991798719,0.09219768335738154,-0.08494279448788879,0
1027,0.041080000000000005,5.000049991798719,0.08397793681612514,-0.0767041413987089,0
1028,0.041120000000000045,5.000378781950543,0.0770733497812526,-0.06978073527965793,0
1029,0.041160000000000085,4.99972120164681,0.07016876280110178,-0.06285741678322018,0
1030,0.0411999999999999,5.000049991798719,0.06425054543319586,-0.05692055556997147,0
1031,0.04123999999999994,5.000049991798719,0.05767474840510757,-0.05032620246944268,0
1032,0.04127999999999998,5.000378781950543,0.05274290066682373,-0.045375886532483506,0
1033,0.04132000000000002,5.000378781950543,0.048139842803156765,-0.040754448443673374,0
1034,0.04136000000000006,5.000378781950543,0.04353678496405114,-0.03613309845162721,0
1035,0.0414000000000001,5.000378781950543,0.04123525605372079,-0.03381336555813233,0
1036,0.04143999999999992,5.000049991798719,0.037289777936047624,-0.029849771723546206,0
1037,0.04147999999999996,5.001693942556992,0.033015509995673945,-0.025557476427888276,0
1038,0.04152,4.998734831190575,0.030056401434036775,-0.022580428966873567,0
1039,0.04156000000000004,5.000378781950543,0.02676850304419573,-0.019274680226739865,0
1040,0.04160000000000008,5.000378781950543,0.024138184341410046,-0.01662659981482384,0
1041,0.0416399999999999,5.000049991798719,0.023480604666976643,-0.015951347163398966,0
1042,0.04167999999999994,5.000378781950543,0.02019270630239349,-0.01264586464383835,0
1043,0.04171999999999998,5.000049991798719,0.01789117745471111,-0.010326840551965838,0
1044,0.04176000000000002,4.999392411494816,0.014932068945377922,-0.007350325796901175,0
1045,0.04180000000000006,4.99972120164681,0.01065780111668721,-0.003058740807506344,0
1046,0.0418400000000001,5.000049991798719,0.009342641789095676,-0.0017263534897036803,0
1047,0.04187999999999992,4.99972120164681,0.006383533309443135,0.0012498937253048736,0
1048,0.04191999999999996,5.000049991798719,0.00506837398845672,0.0025821024435338236,0
1049,0.04196,4.999392411494816,0.004739584158527918,0.0029278522504375404,0
1050,0.04200000000000004,4.99972120164681,0.003424424840084442,0.004259882044538477,0
1051,0.04204000000000008,5.000378781950543,0.0021092655236763236,0.0055918222553413555,0
1052,0.042079999999999895,5.000378781950543,0.0021092655236763236,0.005608513489632927,0
1053,0.042119999999999935,5.000049991798719,0.0021092655236763236,0.005625114986085977,0
1054,0.042159999999999975,5.000707572102282,0.004410794328726292,0.0033400978630205858,0
1055,0.042200000000000015,5.000378781950543,0.0076986926324629085,6.862135127602698e-05,0
1056,0.042240000000000055,5.000049991798719,0.012630540111881347,-0.004846894300560511,0
1057,0.042280000000000095,5.000378781950543,0.019206336795484613,-0.011406449194303142,0
1058,0.04231999999999991,4.99972120164681,0.027097292882612076,-0.01928125360149563,0
1059,0.04235999999999995,5.000707572102282,0.03696098809372539,-0.029128887313696922,0
1060,0.04239999999999999,5.000378781950543,0.04682468341804723,-0.03897661139011978,0
1061,0.04244000000000003,5.000378781950543,0.05800353825532628,-0.05013958529939548,0
1062,0.04248000000000007,5.000049991798719,0.07214150193269635,-0.06426175843643278,0
1063,0.04252000000000011,5.000707572102282,0.08529309625753255,-0.07739765267527399,0
1064,0.04255999999999993,4.99972120164681,0.09910227051166931,-0.09119121736331262,0
1065,0.04259999999999997,5.000378781950543,0.11258265511216159,-0.10465608298205448,0
1066,0.04264000000000001,4.99972120164681,0.1250766702917519,-0.11713466982758448,0
1067,0.04268000000000005,5.000707572102282,0.13724189576754459,-0.12928455767924105,0
1068,0.04272000000000009,4.99972120164681,0.14710559222144168,-0.1391330072800519,0
1069,0.04275999999999991,5.000378781950543,0.15598291912315737,-0.1479951781597484,0
1070,0.04279999999999995,5.000707572102282,0.16288750677424663,-0.15488470067879417,0
1071,0.04283999999999999,5.000049991798719,0.16913451469481428,-0.16111673441509428,0
1072,0.04288000000000003,4.99972120164681,0.17044967426257054,-0.1624170108030506,0
1073,0.04292000000000007,5.000378781950543,0.1730799934038481,-0.16503253782457925,0
1074,0.04296000000000011,4.99972120164681,0.173408783297048,-0.16534662671255634,0
1075,0.04299999999999993,5.000378781950543,0.17012088437045125,-0.16204411794862952,0
1076,0.04303999999999997,4.99972120164681,0.16749056523782313,-0.1593992801988221,0
1077,0.04308000000000001,4.99972120164681,0.16321629666371967,-0.1551105842788396,0
1078,0.04312000000000005,4.999392411494816,0.15762686855906824,-0.14950682014965022,0
1079,0.04316000000000009,4.99972120164681,0.15170865060391983,-0.14357435754023687,0
1080,0.043199999999999905,5.000378781950543,0.14348890350900304,-0.13534045720915117,0
1081,0.043239999999999945,5.001036362253937,0.13658431600783633,-0.12842180793662594,0
1082,0.043279999999999985,5.000707572102282,0.1300085184375156,-0.1218320401053628,0
1083,0.043320000000000025,5.000049991798719,0.12310393104113287,-0.11491357400295099,0
1084,0.043360000000000065,4.999063621342738,0.1158705538265029,-0.10766640968059425,0
1085,0.043400000000000105,5.000049991798719,0.10929475641007817,-0.10107691679702586,0
1086,0.04343999999999992,4.99972120164681,0.10271895904274086,-0.09448751564430058,0
1087,0.04347999999999996,4.99972120164681,0.09515679213113215,-0.08691183666912397,0
1088,0.04352,4.998406041038327,0.08890978473160849,-0.08065140896680886,0
1089,0.04356000000000004,4.998734831190575,0.08233398751715135,-0.07406228324818516,0
1090,0.04360000000000008,5.000707572102282,0.07773092949650393,-0.0694459885587369,0
1091,0.0436399999999999,5.001365152405508,0.07345666135624548,-0.0651585756206768,0
1092,0.04367999999999994,4.998734831190575,0.06655207440480995,-0.05824093577696535,0
1093,0.04371999999999998,4.997419670581074,0.061291436764380286,-0.052967337183205634,0
1094,0.04376000000000002,5.000049991798719,0.05603079915588792,-0.04769383059264287,0
1095,0.04380000000000006,4.995775719817295,0.05044137173192248,-0.04209162618907471,0
1096,0.0438400000000001,5.000378781950543,0.04287920527475757,-0.03451677478487722,0
1097,0.04387999999999992,5.002022732708393,0.03827614746376892,-0.02990112408842356,0
1098,0.04391999999999996,5.001036362253937,0.030385191273714543,-0.021997667102364338,0
1099,0.04396,4.998406041038327,0.027754872559823354,-0.019354939708716795,0
1100,0.04400000000000004,4.99972120164681,0.02085028597429857,-0.012438036585368684,0
1101,0.04404000000000008,4.998734831190575,0.014603279111640999,-0.006178805351401917,0
1102,0.0440799999999999,5.000049991798719,0.009013851957515154,-0.0005772460159590154,0
1103,0.04411999999999994,5.000049991798719,0.004739584158527918,0.003709061751977799,0
1104,0.04415999999999998,5.000707572102282,0.00013652655288240445,0.008324067092932458,0
1105,0.04420000000000002,5.000707572102282,-0.00348016154833046,0.01195261067564321,0
1106,0.04424000000000006,4.99972120164681,-0.004466531027802631,0.012950743363732586,0
1107,0.0442800000000001,5.000049991798719,-0.006439269983302923,0.014935153237000703,0
1108,0.044319999999999915,5.000049991798719,-0.005124110680146385,0.013631572543894271,0
1109,0.044359999999999955,4.999392411494816,-0.004466531027802631,0.012985479178114129,0
1110,0.044399999999999995,5.000378781950543,-0.00348016154833046,0.012010503647049475,0
1111,0.044440000000000035,5.000378781950543,-0.001178632758433426,0.009720276453832638,0
1112,0.044480000000000075,5.000707572102282,-0.00019226327513760522,0.008745116203016379,0
1113,0.044520000000000115,5.000049991798719,0.001780475694892425,0.006783494089889208,0
1114,0.04455999999999993,5.000378781950543,0.0024380553525874815,0.006136938903240519,0
1115,0.04459999999999997,4.99972120164681,0.00506837398845672,0.0035175523433770006,0
1116,0.04464000000000001,5.000378781950543,0.006712323140007484,0.0018844428647021016,0
1117,0.04468000000000005,4.99972120164681,0.006712323140007484,0.001895190127453067,0
1118,0.04472000000000009,4.998734831190575,0.00506837398845672,0.0035497941257285337,0
1119,0.04475999999999991,4.99972120164681,0.003424424840084442,0.00520430569999103,0
1120,0.04479999999999995,4.99972120164681,0.001780475694892425,0.00685872484652264,0
1121,0.04483999999999999,5.000049991798719,-0.001178632758433426,0.009828210874012866,0
1122,0.04488000000000003,5.000707572102282,-0.0031513717215847087,0.011811234982619101,0
1123,0.04492000000000007,5.000378781950543,-0.008412008934208556,0.01708206491154396,0
1124,0.04496000000000011,5.000707572102282,-0.010384747880516562,0.019064904145643324,0
1125,0.04499999999999993,4.99972120164681,-0.01564538504817102,0.024335549174311605,0
1126,0.04503999999999997,5.000049991798719,-0.020248442542986647,0.02894852210618254,0
1127,0.04508000000000001,5.000378781950543,-0.025837869467188898,0.03454777204738674,0
1128,0.04512000000000005,4.99972120164681,-0.031098506538410467,0.03981813972054721,0
1129,0.04516000000000009,5.000378781950543,-0.035372774134525484,0.044102045509613136,0
1130,0.04519999999999991,5.000049991798719,-0.04129099077011207,0.050029807936321447,0
1131,0.04523999999999995,4.99972120164681,-0.04786678698281073,0.05661505754655449,0
1132,0.04527999999999999,5.000049991798719,-0.05214105449331856,0.06089868607033322,0
1133,0.04532000000000003,5.001365152405508,-0.059374430230432304,0.06814133044685969,0
1134,0.04536000000000007,4.999392411494816,-0.06562143649826817,0.07439751299173572,0
1135,0.04540000000000011,4.99972120164681,-0.06956691411691203,0.07835207453761192,0
1136,0.045439999999999925,4.999392411494816,-0.07351239171679176,0.082306543728559,0
1137,0.045479999999999965,5.000378781950543,-0.07712907950017713,0.08593213078156664,0
1138,0.045520000000000005,5.000378781950543,-0.07844423869021762,0.08725609693558004,0
1139,0.045560000000000045,4.99972120164681,-0.0791018182844538,0.08792239120500986,0
1140,0.045600000000000085,5.000378781950543,-0.07548513050968754,0.08431432583460213,0
1141,0.0456399999999999,5.000378781950543,-0.07318360191751903,0.08202132739497414,0
1142,0.04567999999999994,5.000378781950543,-0.06759417530993413,0.07644033870820044,0
1143,0.04571999999999998,4.99972120164681,-0.059703220035172325,0.06855772914368002,0
1144,0.04576000000000002,4.99972120164681,-0.052469844300912574,0.06133260693132078,0
1145,0.04580000000000006,5.000378781950543,-0.04425009907222392,0.0531210230594889,0
1146,0.0458400000000001,5.000049991798719,-0.03340003524671499,0.04227902845015752,0
1147,0.04587999999999992,4.99972120164681,-0.021563601822605624,0.030450572126976896,0
1148,0.04591999999999996,5.001036362253937,-0.0090695885834889,0.017964443900035154,0
1149,0.04596,5.000049991798719,0.004739584158527918,0.004163064108997999,0
1150,0.04600000000000004,5.000707572102282,0.020521496138282788,-0.011611146952351686,0
1151,0.04604000000000008,5.000049991798719,0.03465945920099257,-0.0257415010995488,0
1152,0.0460799999999999,5.000049991798719,0.05142774127470057,-0.04250226622989455,0
1153,0.04611999999999994,5.000707572102282,0.0672096541121064,-0.05827675406428775,0
1154,0.04615999999999998,5.000049991798719,0.08332035709616414,-0.07438012395282424,0
1155,0.04620000000000002,5.002022732708393,0.09943106037751487,-0.09048358601223092,0
1156,0.04624000000000006,5.000049991798719,0.11619934369861068,-0.10724471994999109,0
1157,0.0462800000000001,5.000049991798719,0.13395399697386687,-0.12499231564449809,0
1158,0.04631999999999992,5.000378781950543,0.1487495416410322,-0.13978089449642675,0
1159,0.04635999999999996,5.000378781950543,0.16321629666371967,-0.15424077543126571,0
1160,0.0464,5.000049991798719,0.17702547213016373,-0.16804316849807607,0
1161,0.04644000000000004,4.99972120164681,0.18754674881797762,-0.17855775443425004,0
1162,0.04648000000000008,5.000049991798719,0.19675286602012537,-0.18775727249148444,0
1163,0.046519999999999895,4.998077250885994,0.20299987417473864,-0.19399777306559912,0
1164,0.046559999999999935,4.99972120164681,0.2079317227481386,-0.1989232055795604,0
1165,0.046599999999999975,5.000049991798719,0.2115484117189183,-0.20253356996756486,0
1166,0.046640000000000015,5.000049991798719,0.21253478144070864,-0.20351370653780676,0
1167,0.046680000000000055,5.000049991798719,0.2108908319049833,-0.20186361523528448,0
1168,0.046720000000000095,5.000378781950543,0.20760293284241504,-0.19856966574315849,0
1169,0.04675999999999991,5.000049991798719,0.20168471455967557,-0.1926454883195533,0
1170,0.04679999999999995,4.998077250885994,0.1960952862168741,-0.18705019207499743,0
1171,0.04683999999999999,5.000049991798719,0.19017706800905274,-0.18112619715391998,0
1172,0.04688000000000003,4.99972120164681,0.18425884983988045,-0.17520229340834653,0
1173,0.04692000000000007,5.000049991798719,0.17834063170943854,-0.16927848078568603,0
1174,0.04696000000000011,5.000049991798719,0.1714360439396491,-0.16236838955416072,0
1175,0.04699999999999993,4.99972120164681,0.16420266633286126,-0.15512959946139426,0
1176,0.04703999999999997,5.000378781950543,0.15729807867164466,-0.1482196902342064,0
1177,0.04708000000000001,4.99972120164681,0.1497359112942392,-0.14065229215406433,0
1178,0.04712000000000005,4.999392411494816,0.1441464832738101,-0.1350577242363395,0
1179,0.04716000000000009,5.000378781950543,0.13757068564758101,-0.12847687745944184,0
1180,0.04719999999999991,5.000378781950543,0.13263883745980184,-0.1235400708077893,0
1181,0.04723999999999995,5.000378781950543,0.12803577917591782,-0.11893214468597837,0
1182,0.04727999999999999,5.000707572102282,0.12376151079085085,-0.11465309902706697,0
1183,0.04732000000000003,4.99972120164681,0.11981603229987327,-0.11070293376345001,0
1184,0.04736000000000007,5.000378781950543,0.11554176395451755,-0.10642406908277058,0
1185,0.04740000000000011,5.000378781950543,0.1112674956298565,-0.10214529479520174,0
1186,0.04743999999999993,5.000378781950543,0.10732201719471773,-0.09819540070366267,0
1187,0.04747999999999997,4.99972120164681,0.10436290837996715,-0.09523196647210379,0
1188,0.04752000000000001,5.000049991798719,0.10008864010957542,-0.09095346295657503,0
1189,0.04756000000000005,5.000049991798719,0.09778711104951865,-0.08864778875412821,0
1190,0.04760000000000009,5.001036362253937,0.09515679213113215,-0.0860134147261725,0
1191,0.047639999999999905,4.999392411494816,0.09186889349424851,-0.08272155094161412,0
1192,0.047679999999999945,4.998734831190575,0.08858099486971066,-0.07942977705937126,0
1193,0.047719999999999985,4.99972120164681,0.08496430639699507,-0.07580930314599862,0
1194,0.047760000000000025,4.99972120164681,0.08233398751715135,-0.07317528856862893,0
1195,0.047800000000000065,5.000049991798719,0.08101882808020172,-0.07185652310237414,0
1196,0.047840000000000105,4.999392411494816,0.07805971935431567,-0.06889389793950199,0
1197,0.04787999999999992,5.000378781950543,0.07641577006649763,-0.0672465217301256,0
1198,0.04791999999999996,5.000378781950543,0.07510061063847716,-0.06592802481809557,0
1199,0.04796,4.99972120164681,0.07214150193269635,-0.06296566798698917,0
1200,0.04800000000000004,5.000707572102282,0.07082634251113593,-0.0616473497189384,0
1201,0.04804000000000008,5.000049991798719,0.06819602367398483,-0.05901396123330131,0
1202,0.0480799999999999,5.000049991798719,0.0672096541121064,-0.0580246111391301,0
1203,0.04811999999999994,4.99972120164681,0.06622328455134852,-0.05703535007948321,0
1204,0.04815999999999998,5.000378781950543,0.06392175558060653,-0.05473101855949017,0
1205,0.04820000000000002,5.000378781950543,0.06392175558060653,-0.05472830487513673,0
1206,0.04824000000000006,5.001365152405508,0.06326417587580183,-0.05406810026516341,0
1207,0.0482800000000001,5.000707572102282,0.06162022661597208,-0.05242161479266638,0
1208,0.04831999999999992,4.99972120164681,0.06030506721035353,-0.05110400777922984,0
1209,0.04835999999999996,4.99972120164681,0.06030506721035353,-0.05110164868764261,0
1210,0.0484,5.000378781950543,0.06030506721035353,-0.0510993780227033,0
1211,0.04844000000000004,5.000049991798719,0.05866111795613836,-0.04945324643965163,0
1212,0.04848000000000008,5.000378781950543,0.05734595855501376,-0.04813599295428789,0
1213,0.0485199999999999,5.000049991798719,0.05570200930641887,-0.046490037773587484,0
1214,0.04855999999999994,5.000707572102282,0.054058060060948765,-0.044844170654725304,0
1215,0.04859999999999998,5.000049991798719,0.05307169051516736,-0.04385597119989085,0
1216,0.04864000000000002,5.000049991798719,0.05340048036363608,-0.044183019008318766,0
1217,0.04868000000000006,4.99972120164681,0.052414110818605225,-0.043194995195982244,0
1218,0.0487200000000001,4.99972120164681,0.05142774127470057,-0.04220705906028173,0
1219,0.048759999999999915,4.999063621342738,0.050112581884580176,-0.04089042065570385,0
1220,0.048799999999999955,4.999392411494816,0.04846863264974746,-0.03924507988463659,0
1221,0.048839999999999995,4.99972120164681,0.04846863264974746,-0.03924377572656779,0
1222,0.048880000000000035,5.000378781950543,0.04748226311035131,-0.03825618930627159,0
1223,0.048920000000000075,4.999392411494816,0.04616710372624461,-0.03693990021649875,0
1224,0.048960000000000115,4.99972120164681,0.046495893572083224,-0.03726764742903475,0
1225,0.04899999999999993,5.000049991798719,0.044851944344144246,-0.03562274253635303,0
1226,0.04903999999999997,5.000378781950543,0.04419436465384674,-0.0349642940451379,0
1227,0.04908000000000001,5.000378781950543,0.04419436465384674,-0.03496351200238189,0
1228,0.04912000000000005,5.000707572102282,0.04255041543029908,-0.033318867387650025,0
1229,0.04916000000000009,5.000049991798719,0.04189283574175878,-0.03266067885198341,0
1230,0.04919999999999991,4.999392411494816,0.040577676366185214,-0.03134499706490562,0
1231,0.04923999999999995,4.99972120164681,0.04090646620989019,-0.03167335082337301,0
1232,0.04927999999999999,5.000378781950543,0.040577676366185214,-0.03134421111042414,0
1233,0.04932000000000003,5.000378781950543,0.04090646620989019,-0.0316727371896908,0
1234,0.04936000000000007,5.000049991798719,0.03959130683582415,-0.03035740004389105,0
1235,0.04940000000000011,4.999392411494816,0.04024888652260587,-0.031014887838632196,0
1236,0.04943999999999993,5.001036362253937,0.03860493730659416,-0.029370932496353405,0
1237,0.04947999999999997,5.000378781950543,0.0392625169926218,-0.030028591707062235,0
1238,0.04952000000000001,4.99972120164681,0.039920096679152195,-0.030686336453493723,0
1239,0.04956000000000005,4.99972120164681,0.04024888652260587,-0.031015376775439127,0
1240,0.04960000000000009,5.000049991798719,0.041564045897676996,-0.03233087193006487,0
1241,0.049639999999999906,5.000049991798719,0.041564045897676996,-0.03233129289225867,0
1242,0.049679999999999946,5.000707572102282,0.041564045897676996,-0.032331798917774254,0
1243,0.049719999999999986,5.000049991798719,0.04189283574175878,-0.03266117973048492,0
1244,0.049760000000000026,4.998077250885994,0.041564045897676996,-0.032333065677048065,0
1245,0.049800000000000066,5.000049991798719,0.04123525605372079,-0.032005036323769526,0
1246,0.049840000000000106,4.99972120164681,0.04255041543029908,-0.03332104076819138,0
1247,0.049879999999999924,5.000378781950543,0.04320799511934159,-0.03397954997849563,0
1248,0.049919999999999964,5.000378781950543,0.04353678496405114,-0.03430935367325891,0
1249,0.049960000000000004,4.99972120164681,0.04353678496405114,-0.03431045172660266,0
1250,0.050000000000000044,4.99972120164681,0.04287920527475757,-0.03365405416756763,0
1251,0.050040000000000084,5.000049991798719,0.04452315449893275,-0.03529926947167031,0
1252,0.0500799999999999,5.000049991798719,0.04353678496405114,-0.03431424983827122,0
1253,0.05011999999999994,5.000049991798719,0.043865574808886185,-0.034644473277164495,0
1254,0.05015999999999998,5.000049991798719,0.04452315449893275,-0.0353035701240029,0
1255,0.05020000000000002,4.99972120164681,0.044851944344144246,-0.0356339605580375,0
1256,0.05024000000000006,5.000049991798719,0.044851944344144246,-0.035635644447331916,0
1257,0.0502800000000001,5.000378781950543,0.043865574808886185,-0.034651041969424715,0
1258,0.05031999999999992,5.001036362253937,0.04320799511934159,-0.03399531237202033,0
1259,0.05035999999999996,5.000049991798719,0.041564045897676996,-0.032353296143168675,0
1260,0.0504,4.999392411494816,0.04123525605372079,-0.032026522057734624,0
1261,0.05044000000000004,5.001036362253937,0.04255041543029908,-0.03334377982273638,0
1262,0.05048000000000008,5.000049991798719,0.04222162558596615,-0.03301717086007863,0
1263,0.0505199999999999,4.99972120164681,0.04353678496405114,-0.034334593475601874,0
1264,0.05055999999999994,5.000378781950543,0.044851944344144246,-0.03565209831057137,0
1265,0.05059999999999998,5.000378781950543,0.04287920527475757,-0.033681786774340666,0
1266,0.05064000000000002,4.999063621342738,0.04255041543029908,-0.033355506401328366,0
1267,0.05068000000000006,5.000378781950543,0.04222162558596615,-0.03302930782591447,0
1268,0.0507200000000001,5.001036362253937,0.043865574808886185,-0.03467592997358357,0
1269,0.050759999999999916,5.000378781950543,0.043865574808886185,-0.03467868441169711,0
1270,0.050799999999999956,5.000378781950543,0.043865574808886185,-0.03468152021988953,0
1271,0.050839999999999996,5.000378781950543,0.045180734189481195,-0.035999596634653006,0
1272,0.050880000000000036,5.000378781950543,0.046495893572083224,-0.0373177541324821,0
1273,0.050920000000000076,4.998734831190575,0.04879742249646346,-0.03962236210741883,0
1274,0.050960000000000116,4.99972120164681,0.050112581884580176,-0.04094068133488348,0
1275,0.050999999999999934,5.000049991798719,0.05175653112254362,-0.04258787105364229,0
1276,0.051039999999999974,4.99972120164681,0.05372927021222988,-0.04456393111742431,0
1277,0.051080000000000014,5.000049991798719,0.054058060060948765,-0.04489612228459195,0
1278,0.051120000000000054,5.000049991798719,0.056688378855200935,-0.047529922591900954,0
1279,0.051160000000000094,5.000707572102282,0.05570200930641887,-0.04654711460024419,0
1280,0.05119999999999991,4.998406041038327,0.05635958900548195,-0.047208335749169536,0
1281,0.05123999999999995,5.000707572102282,0.05734595855501376,-0.048198426489180005,0
1282,0.05127999999999999,4.99972120164681,0.05603079915588792,-0.0468870678682425,0
1283,0.05132000000000003,5.000049991798719,0.05635958900548195,-0.04721973793004459,0
1284,0.05136000000000007,4.99972120164681,0.05537321945707481,-0.046237327873395025,0
1285,0.05140000000000011,5.000049991798719,0.054058060060948765,-0.04492620709332846,0
1286,0.05143999999999993,5.000049991798719,0.05372927021222988,-0.04460153482894891,0
1287,0.05147999999999997,5.000378781950543,0.05175653112254362,-0.042632992135087984,0
1288,0.05152000000000001,5.001036362253937,0.05142774127470057,-0.04230847733699368,0
1289,0.05156000000000005,5.000378781950543,0.050770161579389975,-0.041655251187026836,0
1290,0.05160000000000009,5.000378781950543,0.04945500219027131,-0.04034452367975569,0
1291,0.05163999999999991,4.99972120164681,0.04978379203736312,-0.04067782358534766,0
1292,0.05167999999999995,5.000049991798719,0.048139842803156765,-0.03903846242568597,0
1293,0.05171999999999999,4.999392411494816,0.04682468341804723,-0.037727968969803384,0
1294,0.05176000000000003,5.000049991798719,0.04616710372624461,-0.03707513289979666,0
1295,0.05180000000000007,5.000378781950543,0.045509524034943585,-0.036422374359999024,0
1296,0.05184000000000011,5.000707572102282,0.04287920527475757,-0.03379695411741733,0
1297,0.051879999999999926,5.000707572102282,0.044851944344144246,-0.0357746689061606,0
1298,0.051919999999999966,5.000049991798719,0.04419436465384674,-0.03512214197188424,0
1299,0.051960000000000006,5.000707572102282,0.041564045897676996,-0.03249695284257642,0
1300,0.052000000000000046,5.003009103162085,0.04287920527475757,-0.033817318550802784,0
1301,0.052040000000000086,4.998734831190575,0.04189283574175878,-0.032836231885946594,0
1302,0.052079999999999904,5.001693942556992,0.04123525605372079,-0.03218401143503365,0
1303,0.052119999999999944,5.000707572102282,0.044851944344144246,-0.035806135162826026,0
1304,0.052159999999999984,5.003009103162085,0.037618567778495635,-0.02857827006533055,0
1305,0.052200000000000024,5.001036362253937,0.04353678496405114,-0.03450207457964588,0
1306,0.052240000000000064,5.000707572102282,0.04123525605372079,-0.032206208687789756,0
1307,0.052280000000000104,5.000378781950543,0.03959130683582415,-0.03056799800647788,0
1308,0.05231999999999992,4.99972120164681,0.04123525605372079,-0.032217761106757385,0
1309,0.05235999999999996,4.999392411494816,0.03893372714954513,-0.029922121257744752,0
1310,0.0524,5.004653053916539,0.0392625169926218,-0.030256875155044383,0
1311,0.05244000000000004,4.99972120164681,0.03893372714954513,-0.029934124190831073,0
1312,0.05248000000000008,4.999392411494816,0.03827614746376892,-0.02928265803344296,0
1313,0.0525199999999999,5.000049991798719,0.04090646620989019,-0.03191916478166827,0
1314,0.05255999999999994,5.000049991798719,0.04024888652260587,-0.03126784739370519,0
1315,0.05259999999999998,5.000049991798719,0.03893372714954513,-0.029959024439997255,0
1316,0.05264000000000002,4.99972120164681,0.03959130683582415,-0.030623014487791284,0
1317,0.05268000000000006,5.001365152405508,0.037947357621069405,-0.02898554939816375,0
1318,0.0527200000000001,4.999392411494816,0.037618567778495635,-0.028663317265101948,0
1319,0.05275999999999992,5.000378781950543,0.037618567778495635,-0.02866994837909702,0
1320,0.05279999999999996,5.000049991798719,0.0353170388840013,-0.026375123822508208,0
1321,0.05284,5.000049991798719,0.03564582872569445,-0.026710691044776802,0
1322,0.05288000000000004,5.000049991798719,0.036303408409458296,-0.02737512096988095,0
1323,0.05292000000000008,5.000707572102282,0.03465945920099257,-0.025738094680953887,0
1324,0.052959999999999896,5.001036362253937,0.03334429983648583,-0.024429930730959497,0
1325,0.052999999999999936,4.998734831190575,0.0323579303144281,-0.023450628934508208,0
1326,0.053039999999999976,4.999063621342738,0.0323579303144281,-0.023457768786677408,0
1327,0.053080000000000016,4.999392411494816,0.030713981113518377,-0.02182103137931974,0
1328,0.053120000000000056,5.001036362253937,0.031042770953448276,-0.02215710476835927,0
1329,0.053160000000000096,5.000378781950543,0.029727611594485073,-0.020849300527595885,0
1330,0.053199999999999914,4.99972120164681,0.030385191273714543,-0.021514306707009156,0
1331,0.053239999999999954,5.000049991798719,0.028741242076586612,-0.019877855204307383,0
1332,0.053279999999999994,5.000049991798719,0.027754872559823354,-0.018899054387838718,0
1333,0.053320000000000034,5.000049991798719,0.027097292882612076,-0.018249114227787668,0
1334,0.053360000000000074,5.000049991798719,0.027097292882612076,-0.018256824372185093,0
1335,0.053400000000000114,4.99972120164681,0.02676850304419573,-0.017935815115152673,0
1336,0.05343999999999993,5.000049991798719,0.027097292882612076,-0.01827245578106984,0
1337,0.05347999999999997,5.000378781950543,0.0264397132059056,-0.01762279698649607,0
1338,0.05352000000000001,4.99972120164681,0.027426082721154613,-0.018617157246412594,0
1339,0.05356000000000005,4.999392411494816,0.0264397132059056,-0.017638848145660233,0
1340,0.05360000000000009,5.000707572102282,0.027097292882612076,-0.018304557713381325,0
1341,0.05363999999999991,4.99972120164681,0.0264397132059056,-0.01765517721029411,0
1342,0.05367999999999995,5.000378781950543,0.02676850304419573,-0.01799223531029607,0
1343,0.05371999999999999,4.999392411494816,0.0264397132059056,-0.017671782626702846,0
1344,0.05376000000000003,4.99972120164681,0.0264397132059056,-0.017680188478685306,0
1345,0.05380000000000007,4.99972120164681,0.02676850304419573,-0.018017452669955233,0
1346,0.05384000000000011,5.000378781950543,0.027097292882612076,-0.018354785165475257,0
1347,0.05387999999999993,5.000707572102282,0.027426082721154613,-0.018692185767790144,0
1348,0.05391999999999997,5.000707572102282,0.027097292882612076,-0.01837207460165502,0
1349,0.05396000000000001,5.000707572102282,0.02676850304419573,-0.018052031145672644,0
1350,0.05400000000000005,4.99972120164681,0.025453343691792682,-0.016745685686550084,0
1351,0.05404000000000009,4.999063621342738,0.027097292882612076,-0.01839851608174836,0
1352,0.054079999999999906,4.99972120164681,0.027754872559823354,-0.019065044074124154,0
1353,0.054119999999999946,4.99972120164681,0.028083662398618273,-0.019402849137995205,0
1354,0.054159999999999986,4.998734831190575,0.027097292882612076,-0.018425561555544964,0
1355,0.054200000000000026,5.000049991798719,0.027097292882612076,-0.018434709995594607,0
1356,0.054240000000000066,5.000378781950543,0.026110923367741706,-0.017457555224730595,0
1357,0.054280000000000106,5.000378781950543,0.025453343691792682,-0.016809256393660155,0
1358,0.054319999999999924,5.000049991798719,0.023809394504130166,-0.015174653948119829,0
1359,0.054359999999999964,5.001036362253937,0.024795764016348754,-0.01617043589553488,0
1360,0.054400000000000004,5.000378781950543,0.024138184341410046,-0.015522334144160259,0
1361,0.054440000000000044,4.998734831190575,0.024795764016348754,-0.016189457025790138,0
1362,0.054480000000000084,4.999063621342738,0.024138184341410046,-0.01554148563489871,0
1363,0.0545199999999999,5.000378781950543,0.024795764016348754,-0.016208738464942717,0
1364,0.05455999999999994,5.000049991798719,0.024795764016348754,-0.01621847628428439,0
1365,0.05459999999999998,5.000378781950543,0.025124553854007567,-0.016557068398179588,0
1366,0.05464000000000002,4.99972120164681,0.025453343691792682,-0.016895724761237567,0
1367,0.05468000000000006,5.000378781950543,0.025782133529704057,-0.017234445165086938,0
1368,0.0547200000000001,4.999063621342738,0.0264397132059056,-0.017902019239010705,0
1369,0.05475999999999992,4.999063621342738,0.025782133529704057,-0.01725449758292867,0
1370,0.05479999999999996,4.99972120164681,0.0264397132059056,-0.017922198691757506,0
1371,0.05484,5.000049991798719,0.027754872559823354,-0.019247542680421677,0
1372,0.05488000000000004,4.99972120164681,0.027754872559823354,-0.019257790306402997,0
1373,0.05492000000000008,5.000049991798719,0.028083662398618273,-0.019596890551037832,0
1374,0.0549599999999999,4.99972120164681,0.027097292882612076,-0.018620894008865338,0
1375,0.05499999999999994,5.000049991798719,0.028083662398618273,-0.019617698854349247,0
1376,0.05503999999999998,5.001036362253937,0.027754872559823354,-0.019299406487844742,0
1377,0.05508000000000002,5.000049991798719,0.027097292882612076,-0.01865238621242725,0
1378,0.05512000000000006,5.000049991798719,0.028083662398618273,-0.01964937684594676,0
1379,0.0551600000000001,5.000378781950543,0.028083662398618273,-0.01966005946492487,0
1380,0.055199999999999916,4.99972120164681,0.027754872559823354,-0.01934201353185084,0
1381,0.055239999999999956,5.000049991798719,0.0264397132059056,-0.018037659155211043,0
1382,0.055279999999999996,5.000378781950543,0.024795764016348754,-0.01640457579884331,0
1383,0.055320000000000036,4.99972120164681,0.024795764016348754,-0.016415502271841097,0
1384,0.055360000000000076,5.000378781950543,0.021836655483104705,-0.013467380634848009,0
1385,0.055400000000000116,5.000378781950543,0.022494235156274286,-0.014136007410516814,0
1386,0.055439999999999934,5.000378781950543,0.02216544531962629,-0.013818324665165582,0
1387,0.055479999999999974,5.000378781950543,0.021507865646709548,-0.013171911854450179,0
1388,0.055520000000000014,5.000049991798719,0.02085028597429857,-0.012525558596813507,0
1389,0.055560000000000054,5.000378781950543,0.02117907581044083,-0.01286563418153635,0
1390,0.055600000000000094,4.99972120164681,0.020521496138282788,-0.012219399372567039,0
1391,0.05563999999999991,5.002680313010939,0.02085028597429857,-0.012559592966753734,0
1392,0.05567999999999995,5.000049991798719,0.01953512663099438,-0.011255896056552445,0
1393,0.05571999999999999,4.99972120164681,0.018877546960101396,-0.010609837273223455,0
1394,0.05576000000000003,5.000378781950543,0.019206336795484613,-0.010950206229743908,0
1395,0.05580000000000007,4.99972120164681,0.01953512663099438,-0.011290633198662844,0
