,seconds,Trig,EMG_amplitude,EMG_amplitude_filter,peaks
0,0.0,5.000049991798719,-0.00019226327513760522,8.534507103520128e-05,0
1,4.0000000000040004e-05,5.000378781950543,-0.001178632758433426,-0.0009086222345970306,0
2,8.000000000008001e-05,5.001036362253937,0.0007941062093044515,0.0010565210936218485,0
3,0.00011999999999989797,5.000049991798719,0.005397163818512657,0.005651985280710743,0
4,0.00015999999999993797,5.001036362253937,-0.0005210531030302584,-0.00027382281097039973,0
5,0.00019999999999997797,5.000378781950543,0.0030956350107915753,0.003335276419274503,0
6,0.00024000000000001798,4.99972120164681,0.0021092655236763236,0.00234132036972244,0
7,0.000280000000000058,5.000707572102282,-0.00019226327513760522,3.2207364188951374e-05,0
8,0.000320000000000098,4.998734831190575,-0.004466531027802631,-0.004249642204903195,0
9,0.00035999999999991594,4.999392411494816,-0.001178632758433426,-0.0009693233270956997,0
10,0.00039999999999995595,4.999392411494816,-0.0015074225859438989,-0.0013056900867319532,0
11,0.00043999999999999595,5.002351522859708,-0.0005210531030302584,-0.0003268950419403945,0
12,0.00048000000000003595,4.998734831190575,-0.001178632758433426,-0.0009920466068971756,0
13,0.000520000000000076,4.998734831190575,0.00013652655288240445,0.0003155433579950001,0
14,0.0005599999999998939,5.002022732708393,0.0021092655236763236,0.0022807155800531756,0
15,0.0005999999999999339,5.000378781950543,0.004082004499051814,0.004245890438934979,0
16,0.0006399999999999739,5.000049991798719,0.0021092655236763236,0.00226559001385793,0
17,0.0006800000000000139,5.000378781950543,0.003753214669504526,0.0039019804113224147,0
18,0.0007200000000000539,5.000049991798719,0.003753214669504526,0.0038944243988376396,0
19,0.0007600000000000939,5.000049991798719,0.0014516858662357995,0.001585342353499301,0
20,0.0007999999999999119,5.000707572102282,0.0007941062093044515,0.0009202122594445727,0
21,0.0008399999999999519,4.99972120164681,0.0007941062093044515,0.0009126646617930835,0
22,0.0008799999999999919,4.99972120164681,-0.0008498429307955274,-0.0007388292019665206,0
23,0.0009200000000000319,4.99972120164681,-0.0015074225859438989,-0.0014039506722686344,0
24,0.0009600000000000719,5.000378781950543,-0.0008498429307955274,-0.0007539098892603104,0
25,0.001000000000000112,4.99972120164681,-0.001178632758433426,-0.0010902356115232294,0
26,0.0010399999999999299,4.99972120164681,0.0014516858662357995,0.0015325501305305874,0
27,0.0010799999999999699,5.000049991798719,0.00013652655288240445,0.000209860981058972,0
28,0.0011200000000000099,5.000378781950543,0.001780475694892425,0.0018462833679282415,0
29,0.0011600000000000499,4.99972120164681,0.001780475694892425,0.0018387597282376964,0
30,0.0012000000000000899,5.000049991798719,0.0021092655236763236,0.002160029067246167,0
31,0.0012399999999999078,5.000049991798719,-0.004137741201439435,-0.0040944949632730826,0
32,0.0012799999999999478,4.99972120164681,-0.003808951374948702,-0.0037732192233654637,0
33,0.0013199999999999878,5.000049991798719,0.00013652655288240445,0.0001647478711427246,0
34,0.0013600000000000279,5.000049991798719,-0.0015074225859438989,-0.0014867088133153747,0
35,0.0014000000000000679,5.000378781950543,-0.002165002240582567,-0.002151792691472968,0
36,0.0014400000000001079,5.000049991798719,0.001122896037706475,0.0011286047198223346,0
37,0.0014799999999999258,5.000378781950543,-0.00019226327513760522,-0.00019405206908768144,0
38,0.0015199999999999658,5.000049991798719,0.0014516858662357995,0.0014424030215402185,0
39,0.0015600000000000058,5.000378781950543,-0.0031513717215847087,-0.0031681451573229748,0
40,0.0016000000000000458,4.99972120164681,0.0004653163810297567,0.00044105584832348013,0
41,0.0016400000000000858,5.000049991798719,0.00013652655288240445,0.00010478245164386498,0
42,0.0016799999999999038,5.000378781950543,-0.0024937920677107622,-0.002533016174695822,0
43,0.0017199999999999438,4.99972120164681,-0.0024937920677107622,-0.002540492583317951,0
44,0.0017599999999999838,4.99972120164681,-0.0024937920677107622,-0.0025479653604886425,0
45,0.0018000000000000238,5.000378781950543,0.00013652655288240445,7.488414870043423e-05,0
46,0.0018400000000000638,4.999392411494816,-0.0031513717215847087,-0.0032204795371011496,0
47,0.0018800000000001038,4.999392411494816,-0.0031513717215847087,-0.003227941214075423,0
48,0.0019199999999999218,5.000378781950543,-0.004466531027802631,-0.004550558428629534,0
49,0.0019599999999999618,5.000049991798719,-0.0018362124133269458,-0.0019276939195870474,0
50,0.0020000000000000018,5.000049991798719,-0.0005210531030302584,-0.0006199848775688859,0
51,0.0020400000000000418,5.000378781950543,-0.0005210531030302584,-0.0006274312744545727,0
52,0.002080000000000082,5.000378781950543,-0.00019226327513760522,-0.000306083937830381,0
53,0.0021199999999998997,5.000049991798719,-0.0031513717215847087,-0.0032726309357183785,0
54,0.0021599999999999397,4.99972120164681,-0.002165002240582567,-0.002293696032133545,0
55,0.0021999999999999797,5.000049991798719,-0.003808951374948702,-0.00394507573571197,0
56,0.0022400000000000198,5.000049991798719,-0.0015074225859438989,-0.0016509734735478793,0
57,0.0022800000000000598,5.000378781950543,-0.002165002240582567,-0.002315975578504251,0
58,0.0023200000000000998,5.000378781950543,-0.0028225818947114484,-0.002980973572291811,0
59,0.0023599999999999177,5.000049991798719,0.0014516858662357995,0.0012858799937761254,0
60,0.0023999999999999577,4.99972120164681,0.0004653163810297567,0.0002921004925745406,0
61,0.0024399999999999977,5.000049991798719,-0.0008498429307955274,-0.0010304646222743425,0
62,0.0024800000000000377,4.99972120164681,-0.0008498429307955274,-0.0010378661782543114,0
63,0.0025200000000000777,4.99972120164681,-0.0018362124133269458,-0.002031632935667138,0
64,0.0025599999999998957,4.99972120164681,-0.005452900506126915,-0.005655713988212057,0
65,0.0025999999999999357,5.000378781950543,-0.0031513717215847087,-0.003361573814257751,0
66,0.0026399999999999757,5.000049991798719,-0.0015074225859438989,-0.0017250089060447467,0
67,0.0026800000000000157,5.000378781950543,-0.0024937920677107622,-0.0027187581980941157,0
68,0.0027200000000000557,4.99972120164681,-0.001178632758433426,-0.0014109742479868925,0
69,0.0027600000000000957,4.99972120164681,-0.0015074225859438989,-0.0017471349496063627,0
70,0.0027999999999999137,5.000049991798719,-0.001178632758433426,-0.0014257114772137,0
71,0.0028399999999999537,4.99972120164681,-0.0024937920677107622,-0.0027482325887064995,0
72,0.0028799999999999937,4.99972120164681,-0.0028225818947114484,-0.0030843796311283284,0
73,0.0029200000000000337,5.000049991798719,-0.003808951374948702,-0.004078101706119882,0
74,0.0029600000000000737,4.99972120164681,-0.006439269983302923,-0.0067157682547087675,0
75,0.0029999999999998916,5.000049991798719,-0.0031513717215847087,-0.0034352132448727934,0
76,0.0030399999999999316,4.99972120164681,-0.0047953208540382625,-0.005086500907043632,0
77,0.0030799999999999716,5.000378781950543,-0.0005210531030302584,-0.0008195669297959829,0
78,0.0031200000000000117,5.000049991798719,-0.0018362124133269458,-0.0021420552241249186,0
79,0.0031600000000000517,5.000049991798719,-0.0024937920677107622,-0.0028069590390627985,0
80,0.0032000000000000917,4.999392411494816,-0.004137741201439435,-0.0044582274761386246,0
81,0.0032399999999999096,4.99972120164681,-0.0031513717215847087,-0.003479172408717042,0
82,0.0032799999999999496,5.000049991798719,-0.002165002240582567,-0.002500112415548823,0
83,0.0033199999999999896,4.99972120164681,0.0007941062093044515,0.00045169150476654686,0
84,0.0033600000000000296,5.000378781950543,0.001122896037706475,0.0007731817954998357,0
85,0.0034000000000000696,4.999392411494816,0.0014516858662357995,0.0010946771118812851,0
86,0.0034400000000001096,5.000049991798719,0.00013652655288240445,-0.00022777165450413393,0
87,0.0034799999999999276,5.000049991798719,-0.0015074225859438989,-0.0018790051536748454,0
88,0.0035199999999999676,5.000049991798719,-0.006110480157705198,-0.006489341959544656,0
89,0.0035600000000000076,5.001036362253937,-0.010713537704454032,-0.011099673580641584,0
90,0.0036000000000000476,4.999392411494816,-0.00348016154833046,-0.0038735663056052036,0
91,0.0036400000000000876,4.999063621342738,-0.002165002240582567,-0.00256567065220737,0
92,0.0036799999999999056,5.000378781950543,-0.001178632758433426,-0.00158655956421951,0
93,0.0037199999999999456,5.000049991798719,-0.002165002240582567,-0.002580182146914335,0
94,0.0037599999999999856,5.000049991798719,-0.002165002240582567,-0.002587429920442704,0
95,0.0038000000000000256,4.999392411494816,-0.0015074225859438989,-0.001937092678938731,0
96,0.0038400000000000656,5.000049991798719,-0.001178632758433426,-0.0016155398708185553,0
97,0.0038800000000001056,5.000378781950543,-0.0015074225859438989,-0.001951561290650103,0
98,0.0039199999999999235,5.000049991798719,-0.0005210531030302584,-0.0009724179396896568,0
99,0.0039599999999999635,5.000049991798719,-0.0008498429307955274,-0.001308428405768007,0
100,0.0040000000000000036,4.99972120164681,-0.0031513717215847087,-0.0036171723079846205,0
101,0.0040400000000000436,5.000707572102282,-0.0028225818947114484,-0.003295592032434567,0
102,0.0040800000000000836,5.000707572102282,-0.0015074225859438989,-0.0019876366816946383,0
103,0.0041199999999999015,5.000378781950543,-0.001178632758433426,-0.0016660451857523225,0
104,0.0041599999999999415,4.999392411494816,-0.0008498429307955274,-0.0013444480300869952,0
105,0.0041999999999999815,5.000378781950543,-0.001178632758433426,-0.0016804248369937723,0
106,0.0042400000000000215,5.000049991798719,-0.002165002240582567,-0.0026739755726282706,0
107,0.0042800000000000615,5.000378781950543,-0.0005210531030302584,-0.001037201929726515,0
108,0.0043200000000001015,5.000378781950543,0.0004653163810297567,-5.800214845976459e-05,0
109,0.0043599999999999195,5.000378781950543,-0.001178632758433426,-0.0017091151658655142,0
110,0.0043999999999999595,5.000707572102282,-0.0015074225859438989,-0.0020450630135037833,0
111,0.0044399999999999995,4.999392411494816,-0.0024937920677107622,-0.0030385846246491926,0
112,0.0044800000000000395,5.000049991798719,0.0014516858662357995,0.0008997471035726923,0
113,0.0045200000000000795,5.000049991798719,-0.0018362124133269458,-0.002395291425186356,0
114,0.0045599999999998975,4.99972120164681,-0.002165002240582567,-0.0027312155122658074,0
115,0.0045999999999999375,5.000378781950543,-0.0031513717215847087,-0.0037247132309058493,0
116,0.0046399999999999775,5.000049991798719,-0.0047953208540382625,-0.005375784546028819,0
117,0.0046800000000000175,5.000378781950543,-0.0031513717215847087,-0.0037389515085248124,0
118,0.0047200000000000575,4.99972120164681,0.0004653163810297567,-0.0001293733804200465,0
119,0.0047600000000000975,5.000049991798719,0.0030956350107915753,0.0024938414279602307,0
120,0.0047999999999999154,4.99972120164681,0.001780475694892425,0.0011715844764640772,0
121,0.0048399999999999554,4.99972120164681,-0.0005210531030302584,-0.0011370357386468997,0
122,0.0048799999999999955,5.000049991798719,0.00013652655288240445,-0.00048654124892210976,0
123,0.0049200000000000355,5.000049991798719,-0.006439269983302923,-0.007069416667735889,0
124,0.0049600000000000755,5.000049991798719,-0.005781690331979852,-0.006418909582955841,0
125,0.004999999999999893,4.99972120164681,-0.006768059808773,-0.007412345277713796,0
126,0.005039999999999933,4.999392411494816,-0.004466531027802631,-0.0051178763336707424,0
127,0.005079999999999973,5.000378781950543,-0.001178632758433426,-0.0018370314877658388,0
128,0.005120000000000013,5.000049991798719,0.005725953648695714,0.005060507941753517,0
129,0.005160000000000053,5.000049991798719,0.0030956350107915753,0.00242314880445135,0
130,0.0052000000000000934,5.000049991798719,-0.00019226327513760522,-0.0008717834703414272,0
131,0.005239999999999911,5.000049991798719,-0.0024937920677107622,-0.003180339708955869,0
132,0.005279999999999951,5.000707572102282,-0.0005210531030302584,-0.001214621615241511,0
133,0.005319999999999991,5.000049991798719,-0.0008498429307955274,-0.0015504257066802562,0
134,0.005360000000000031,4.99972120164681,-0.00019226327513760522,-0.0008998536752211832,0
135,0.005400000000000071,4.999063621342738,-0.0015074225859438989,-0.0022220139386055567,0
136,0.005440000000000111,5.000378781950543,0.001122896037706475,0.00040131043619756786,0
137,0.005479999999999929,5.000049991798719,0.001780475694892425,0.001051902580340834,0
138,0.005519999999999969,5.000049991798719,-0.0005210531030302584,-0.00125660696278283,0
139,0.005560000000000009,5.000378781950543,0.0024380553525874815,0.0016955275474759115,0
140,0.005600000000000049,4.99972120164681,0.0004653163810297567,-0.0002841785376356395,0
141,0.005640000000000089,4.99972120164681,-0.00019226327513760522,-0.0009487184436258386,0
142,0.005679999999999907,5.000049991798719,0.003424424840084442,0.0026610163173925675,0
143,0.005719999999999947,5.000378781950543,0.0024380553525874815,0.0016677004031615166,0
144,0.005759999999999987,4.99972120164681,0.001780475694892425,0.00100318127801414,0
145,0.005800000000000027,5.000049991798719,-0.0018362124133269458,-0.002620439306601921,0
146,0.005840000000000067,4.99972120164681,0.0021092655236763236,0.0013181131767955193,0
147,0.005880000000000107,5.000049991798719,-0.0005210531030302584,-0.0013191238490296543,0
148,0.005919999999999925,5.000049991798719,-0.0015074225859438989,-0.0023124046449174095,0
149,0.005959999999999965,5.000378781950543,0.0004653163810297567,-0.00034656987315552544,0
150,0.006000000000000005,5.000049991798719,0.00013652655288240445,-0.0006822567471740622,0
151,0.006040000000000045,5.000049991798719,0.0004653163810297567,-0.0003603567840189507,0
152,0.006080000000000085,4.99972120164681,0.0027668451816259126,0.0019342893639621365,0
153,0.006119999999999903,5.000049991798719,0.0021092655236763236,0.0012698342972325052,0
154,0.006159999999999943,5.000049991798719,0.0024380553525874815,0.0015917559926158593,0
155,0.006199999999999983,5.000049991798719,0.0007941062093044515,-5.905397756639881e-05,0
156,0.006240000000000023,5.000378781950543,0.0004653163810297567,-0.0003946972947765448,0
157,0.006280000000000063,5.000378781950543,-0.001178632758433426,-0.0020454925539175745,0
158,0.006320000000000103,4.99972120164681,0.0014516858662357995,0.0005779873515836054,0
159,0.006359999999999921,4.999392411494816,0.001780475694892425,0.0008999458927923159,0
160,0.006399999999999961,4.999392411494816,0.003424424840084442,0.002537071213424746,0
161,0.006440000000000001,4.99972120164681,0.0007941062093044515,-0.00010006374790067917,0
162,0.006480000000000041,4.999392411494816,0.001780475694892425,0.0008794969322392077,0
163,0.006520000000000081,4.99972120164681,0.0030956350107915753,0.002187854998827949,0
164,0.006559999999999899,4.99972120164681,0.0007941062093044515,-0.0001204674648347026,0
165,0.006599999999999939,5.000049991798719,0.00013652655288240445,-0.00078483316534358,0
166,0.006639999999999979,5.000049991798719,0.004082004499051814,0.0031538663857378973,0
167,0.006680000000000019,5.000049991798719,0.0030956350107915753,0.0021607261822549646,0
168,0.006720000000000059,5.000378781950543,0.0004653163810297567,-0.00047635545204209617,0
169,0.006760000000000099,4.99972120164681,0.001122896037706475,0.00017446894156467464,0
170,0.006799999999999917,5.000378781950543,0.001780475694892425,0.0008253011078792132,0
171,0.006839999999999957,5.000049991798719,0.001122896037706475,0.00016098176270877562,0
172,0.006879999999999997,5.000049991798719,0.0024380553525874815,0.0014694092231355054,0
173,0.006920000000000037,4.99972120164681,0.003424424840084442,0.0024490547203063514,0
174,0.006960000000000077,5.000378781950543,-0.00019226327513760522,-0.001174349490561279,0
175,0.006999999999999895,5.000049991798719,-0.00019226327513760522,-0.0011810576610198035,0
176,0.007039999999999935,5.000378781950543,0.0024380553525874815,0.0014425607518942715,0
177,0.007079999999999975,5.000049991798719,0.0014516858662357995,0.00044949903679322484,0
178,0.007120000000000015,5.000378781950543,0.001780475694892425,0.0007716046531296879,0
179,0.007160000000000055,5.000378781950543,0.003424424840084442,0.0024088776327514903,0
180,0.007200000000000095,5.000049991798719,0.0007941062093044515,-0.00022810908657507187,0
181,0.007239999999999913,4.99972120164681,0.0021092655236763236,0.001080390246500254,0
182,0.007279999999999953,4.99972120164681,0.0027668451816259126,0.001731318060582172,0
183,0.007319999999999993,5.000378781950543,0.00013652655288240445,-0.00090564424446907,0
184,0.007360000000000033,5.000378781950543,0.004410794328726292,0.0033619880527100496,0
185,0.007400000000000073,5.000378781950543,0.004739584158527918,0.0036841506315246596,0
186,0.007440000000000113,5.000049991798719,0.004410794328726292,0.003348741808400043,0
187,0.007479999999999931,4.99972120164681,0.004739584158527918,0.0036709209324802396,0
188,0.007519999999999971,5.000049991798719,0.001780475694892425,0.0007052100806134362,0
189,0.007560000000000011,5.000049991798719,0.0007941062093044515,-0.00028775344587638667,0
190,0.007600000000000051,5.000378781950543,0.0027668451816259126,0.0016783998626625934,0
191,0.007640000000000091,5.000049991798719,0.0021092655236763236,0.0010142429477901322,0
192,0.007679999999999909,4.99972120164681,0.0021092655236763236,0.0010076741274171945,0
193,0.007719999999999949,4.99972120164681,0.0024380553525874815,0.0013299036021455232,0
194,0.007759999999999989,4.99972120164681,0.004082004499051814,0.0029673008902069207,0
195,0.007800000000000029,5.000049991798719,0.004082004499051814,0.0029607575571230426,0
196,0.00784000000000007,4.99972120164681,0.004739584158527918,0.003611802438322621,0
197,0.00788000000000011,4.99972120164681,0.00013652655288240445,-0.0009977813613548635,0
198,0.007919999999999927,5.000378781950543,0.0027668451816259126,0.0016260196869870784,0
199,0.007959999999999967,5.000049991798719,0.0027668451816259126,0.0016195107495502183,0
200,0.008000000000000007,4.99972120164681,0.004410794328726292,0.003256959631460937,0
201,0.008040000000000047,5.000049991798719,0.004739584158527918,0.003579257897550568,0
202,0.008080000000000087,5.000378781950543,0.005397163818512657,0.004230354724479166,0
203,0.008119999999999905,4.99972120164681,0.006383533309443135,0.005210250142135041,0
204,0.008159999999999945,5.000049991798719,0.0030956350107915753,0.001915886559063359,0
205,0.008199999999999985,5.000049991798719,0.005725953648695714,0.004539748730421796,0
206,0.008240000000000025,5.000049991798719,0.004082004499051814,0.0028893519610733534,0
207,0.008280000000000065,4.999392411494816,0.006054743479005864,0.0048556521970773035,0
208,0.008320000000000105,5.000049991798719,0.007369902801517392,0.006164381680252788,0
209,0.008359999999999923,5.000707572102282,0.007369902801517392,0.006157960774336499,0
210,0.008399999999999963,5.000049991798719,0.00506837398845672,0.003850020017530842,0
211,0.008440000000000003,5.000378781950543,0.006054743479005864,0.004829986555203468,0
212,0.008480000000000043,4.998734831190575,0.001780475694892425,0.000549324837724553,0
213,0.008520000000000083,5.001036362253937,0.00506837398845672,0.003830838246022133,0
214,0.008559999999999901,4.999063621342738,0.004739584158527918,0.003495672607458047,0
215,0.008599999999999941,5.001036362253937,0.0007941062093044515,-0.0004561720452918934,0
216,0.008639999999999981,5.000378781950543,0.004082004499051814,0.0028253686744596513,0
217,0.008680000000000021,4.998734831190575,0.003753214669504526,0.0024902304368133133,0
218,0.008720000000000061,5.001036362253937,0.008685062126061585,0.007415738675478211,0
219,0.008760000000000101,4.99972120164681,0.006383533309443135,0.0051078798594284104,0
220,0.008799999999999919,5.002022732708393,0.009342641789095676,0.008060667586307888,0
221,0.008839999999999959,5.001036362253937,0.006712323140007484,0.005424037459245737,0
222,0.008879999999999999,5.001036362253937,0.00506837398845672,0.0037737861326040136,0
223,0.008920000000000039,4.999063621342738,0.004410794328726292,0.0031099136286923804,0
224,0.008960000000000079,4.9967620902758165,0.008027482463535476,0.0067203182781994985,0
225,0.008999999999999897,5.001036362253937,0.008027482463535476,0.006714044179688357,0
226,0.009039999999999937,4.998734831190575,0.005725953648695714,0.004406250680982319,0
227,0.009079999999999977,5.000378781950543,0.003753214669504526,0.0024272564603655946,0
228,0.009120000000000017,4.99972120164681,0.005397163818512657,0.004064959838126511,0
229,0.009160000000000057,5.000049991798719,0.00506837398845672,0.0037299337346807624,0
230,0.009200000000000097,5.000049991798719,0.007369902801517392,0.006025235799829375,0
231,0.009239999999999915,5.000378781950543,0.006054743479005864,0.004703859282444963,0
232,0.009279999999999955,5.000378781950543,0.004082004499051814,0.0027249126881594343,0
233,0.009319999999999995,5.000378781950543,0.00506837398845672,0.003705084171217104,0
234,0.009360000000000035,4.99972120164681,0.006383533309443135,0.005014055121223738,0
235,0.009400000000000075,5.000378781950543,0.004410794328726292,0.003035137432217938,0
236,0.009439999999999893,5.000049991798719,0.006712323140007484,0.005330497225164285,0
237,0.009479999999999933,5.000049991798719,0.003424424840084442,0.0020364396240635297,0
238,0.009519999999999973,4.99972120164681,0.006054743479005864,0.004660608706106873,0
239,0.009560000000000013,4.99972120164681,0.008685062126061585,0.007284787567665938,0
240,0.009600000000000053,5.000378781950543,0.01065780111668721,0.009251396571197168,0
241,0.009640000000000093,5.000378781950543,0.004739584158527918,0.0033270594513054056,0
242,0.009679999999999911,5.000378781950543,0.009342641789095676,0.007924006772400839,0
243,0.009719999999999951,5.000378781950543,0.009013851957515154,0.0075891165104447515,0
244,0.009759999999999991,5.000378781950543,0.009342641789095676,0.007911815817521217,0
245,0.009800000000000031,5.000378781950543,0.005397163818512657,0.003960257255018338,0
246,0.009840000000000071,5.000378781950543,0.008685062126061585,0.007242084929882001,0
247,0.009880000000000111,5.000049991798719,0.005725953648695714,0.004276915805653374,0
248,0.009919999999999929,4.99972120164681,0.008027482463535476,0.006572393985978091,0
249,0.009959999999999969,5.000707572102282,0.008027482463535476,0.006566353390273047,0
250,0.010000000000000009,5.000378781950543,0.007041112970698912,0.005573953366940587,0
251,0.010040000000000049,5.000049991798719,0.006712323140007484,0.005239143097298189,0
252,0.010080000000000089,5.000049991798719,0.009342641789095676,0.007863451425252545,0
253,0.010119999999999907,4.99972120164681,0.01065780111668721,0.0091726105757358,0
254,0.010159999999999947,5.000378781950543,0.009671431620803153,0.008180251072913439,0
255,0.010199999999999987,5.000707572102282,0.0076986926324629085,0.006201532273885051,0
256,0.010240000000000027,5.000049991798719,0.007041112970698912,0.005537983023698828,0
257,0.010280000000000067,5.000049991798719,0.006383533309443135,0.004874444022237853,0
258,0.010320000000000107,4.99972120164681,0.006712323140007484,0.005197284786700309,0
259,0.010359999999999925,5.000378781950543,0.0027668451816259126,0.0012458680621413706,0
260,0.010399999999999965,5.000378781950543,0.004082004499051814,0.0025550989390703805,0
261,0.010440000000000005,4.99972120164681,0.005397163818512657,0.0038643401694053027,0
262,0.010480000000000045,5.000049991798719,0.009013851957515154,0.007475120596277668,0
263,0.010520000000000085,5.000049991798719,0.01295932994485767,0.011414701274044781,0
264,0.010559999999999903,5.000378781950543,0.008685062126061585,0.007134546573720887,0
265,0.010599999999999943,5.000378781950543,0.0076986926324629085,0.006142300652068538,0
266,0.010639999999999983,5.000378781950543,0.009013851957515154,0.007451594027901295,0
267,0.010680000000000023,5.000707572102282,0.005397163818512657,0.00382905044380681,0
268,0.010720000000000063,5.000049991798719,0.005397163818512657,0.0038232055280686874,0
269,0.010760000000000103,5.000378781950543,0.0076986926324629085,0.0061188999807939215,0
270,0.01079999999999992,5.000378781950543,0.008356272294735026,0.0067706558614460425,0
271,0.01083999999999996,4.99972120164681,0.008027482463535476,0.006436052853255896,0
272,0.01088,5.000049991798719,0.0076986926324629085,0.0061014604747787835,0
273,0.01092000000000004,5.000707572102282,0.006054743479005864,0.004451719428391968,0
274,0.01096000000000008,4.99972120164681,0.008027482463535476,0.006418677199287166,0
275,0.010999999999999899,4.99972120164681,0.009013851957515154,0.007399276183680057,0
276,0.011039999999999939,5.000378781950543,0.008027482463535476,0.006407146908844979,0
277,0.011079999999999979,4.999392411494816,0.009671431620803153,0.008045347038603691,0
278,0.011120000000000019,5.000049991798719,0.007041112970698912,0.005409290138883071,0
279,0.011160000000000059,4.99972120164681,0.0076986926324629085,0.0060611423534003,0
280,0.011200000000000099,5.000707572102282,0.006712323140007484,0.005069056240475452,0
281,0.011239999999999917,5.000049991798719,0.008027482463535476,0.006378509794649584,0
282,0.011279999999999957,5.000049991798719,0.009013851957515154,0.007359184394659494,0
283,0.011319999999999997,5.000378781950543,0.006054743479005864,0.004394391921763151,0
284,0.011360000000000037,5.000378781950543,0.007041112970698912,0.005375088342780366,0
285,0.011400000000000077,5.000707572102282,0.008685062126061585,0.0070133753752366305,0
286,0.011439999999999895,5.000049991798719,0.005397163818512657,0.003719825916538425,0
287,0.011479999999999935,5.000049991798719,0.005397163818512657,0.003714185761063263,0
288,0.011519999999999975,5.000049991798719,0.006054743479005864,0.0043661362856015126,0
289,0.011560000000000015,4.999392411494816,0.006054743479005864,0.0043605181929417475,0
290,0.011600000000000055,5.000378781950543,0.009342641789095676,0.007642809477370676,0
291,0.011640000000000095,5.000049991798719,0.003753214669504526,0.0020477864227497365,0
292,0.011679999999999913,4.99972120164681,0.006712323140007484,0.005001310072414503,0
293,0.011719999999999953,4.99972120164681,0.003424424840084442,0.0017078380893335108,0
294,0.011759999999999993,4.99972120164681,0.006712323140007484,0.004990173867195396,0
295,0.011800000000000033,4.99972120164681,0.005397163818512657,0.003669463208080514,0
296,0.011840000000000073,4.999392411494816,0.008027482463535476,0.0062942417231962216,0
297,0.011880000000000113,4.99972120164681,0.012301750279031881,0.010562980639697668,0
298,0.01191999999999993,4.99972120164681,0.006712323140007484,0.004968035855716851,0
299,0.01195999999999997,5.000049991798719,0.008685062126061585,0.006935268473906419,0
300,0.01200000000000001,5.000049991798719,0.005397163818512657,0.0036418750985649983,0
301,0.01204000000000005,5.000378781950543,0.006712323140007484,0.004951550675246113,0
302,0.01208000000000009,5.000378781950543,0.00506837398845672,0.0033021291246935758,0
303,0.012119999999999909,5.000049991798719,0.006383533309443135,0.004611827415249524,0
304,0.012159999999999949,5.000378781950543,0.005725953648695714,0.003948798115328369,0
305,0.012199999999999989,4.99972120164681,0.010000221452637598,0.008217627693964526,0
306,0.012240000000000029,5.000049991798719,0.007041112970698912,0.005253092423125077,0
307,0.012280000000000069,5.000707572102282,0.0076986926324629085,0.005905256754855693,0
308,0.012320000000000109,5.001036362253937,0.01065780111668721,0.008858961390301744,0
309,0.012359999999999927,5.000378781950543,0.007369902801517392,0.005565670729921679,0
310,0.012399999999999967,5.000707572102282,0.006383533309443135,0.004573920418442984,0
311,0.012440000000000007,4.99972120164681,0.008356272294735026,0.006541290132298823,0
312,0.012480000000000047,5.000378781950543,0.006712323140007484,0.0048919832761907785,0
313,0.012520000000000087,4.99972120164681,0.009013851957515154,0.00718816598438505,0
314,0.012559999999999905,4.99972120164681,0.009342641789095676,0.007511621320655051,0
315,0.012599999999999945,4.99972120164681,0.008356272294735026,0.0065199289668465684,0
316,0.012639999999999985,4.99972120164681,0.007369902801517392,0.005528248271827462,0
317,0.012680000000000025,5.000049991798719,0.009013851957515154,0.0071668979053774555,0
318,0.012720000000000065,4.999392411494816,0.008685062126061585,0.006832820252460663,0
319,0.012760000000000105,4.99972120164681,0.006712323140007484,0.004854805167482047,0
320,0.012799999999999923,5.000049991798719,0.008356272294735026,0.006493489967301094,0
321,0.012839999999999963,5.000378781950543,0.0076986926324629085,0.005830657715536801,0
322,0.012880000000000003,4.99972120164681,0.007041112970698912,0.005167837251020056,0
323,0.012920000000000043,5.001036362253937,0.007041112970698912,0.005162608256252474,0
324,0.012960000000000083,4.99972120164681,0.0076986926324629085,0.005814970752402262,0
325,0.0129999999999999,5.000049991798719,0.003753214669504526,0.0018642874740735504,0
326,0.01303999999999994,4.99972120164681,0.004410794328726292,0.0025166736891814724,0
327,0.01307999999999998,5.000378781950543,0.00506837398845672,0.003169071796989112,0
328,0.01312000000000002,4.999392411494816,0.006054743479005864,0.0041502716486628705,0
329,0.01316000000000006,4.999392411494816,0.005397163818512657,0.003487534283119646,0
330,0.0132000000000001,4.99972120164681,0.008685062126061585,0.006770286840143323,0
331,0.013239999999999919,4.999392411494816,0.011972960446309217,0.010053051385011148,0
332,0.013279999999999959,5.000049991798719,0.009671431620803153,0.007746400779812507,0
333,0.013319999999999999,5.000707572102282,0.01032901128459894,0.00839887068006565,0
334,0.013360000000000039,5.000049991798719,0.0076986926324629085,0.005763454300920392,0
335,0.013400000000000079,5.000378781950543,0.01032901128459894,0.008388687282884702,0
336,0.013439999999999896,4.99972120164681,0.007041112970698912,0.0050957153758749915,0
337,0.013479999999999936,5.000378781950543,0.0024380553525874815,0.00048759626186071353,0
338,0.013519999999999976,5.000049991798719,0.003753214669504526,0.0017977062001466367,0
339,0.013560000000000016,5.000378781950543,0.005397163818512657,0.0034366181077802164,0
340,0.013600000000000056,5.000049991798719,0.007041112970698912,0.005075542175753134,0
341,0.013640000000000096,4.999392411494816,0.008027482463535476,0.006056898761361851,0
342,0.013679999999999914,5.000378781950543,0.005725953648695714,0.003750369236023489,0
343,0.013719999999999954,4.99972120164681,0.006054743479005864,0.004074170572227349,0
344,0.013759999999999994,4.99972120164681,0.003753214669504526,0.0017676655045942447,0
345,0.013800000000000034,5.000049991798719,0.006712323140007484,0.004721809972441148,0
346,0.013840000000000074,5.000049991798719,0.0076986926324629085,0.005703227737136251,0
347,0.013879999999999892,5.000049991798719,0.005725953648695714,0.0037255493198431583,0
348,0.013919999999999932,5.000707572102282,0.00506837398845672,0.0030630425395698777,0
349,0.013959999999999972,5.000049991798719,0.01032901128459894,0.008318765048344973,0
350,0.014000000000000012,5.000378781950543,0.0076986926324629085,0.005683543960602744,0
351,0.014040000000000052,4.999392411494816,0.006712323140007484,0.004692284403313853,0
352,0.014080000000000092,5.000049991798719,0.003753214669504526,0.0017282982576798459,0
353,0.01411999999999991,5.000378781950543,0.0027668451816259126,0.0007370635032200182,0
354,0.01415999999999995,5.000378781950543,0.005725953648695714,0.003691319131023436,0
355,0.01419999999999999,5.000049991798719,0.00506837398845672,0.0030288990775153126,0
356,0.01424000000000003,4.999063621342738,0.0076986926324629085,0.005654389792849298,0
357,0.01428000000000007,5.000378781950543,0.009671431620803153,0.007622313335631058,0
358,0.01432000000000011,5.000049991798719,0.0076986926324629085,0.00564477140327979,0
359,0.014359999999999928,4.99972120164681,0.003753214669504526,0.0016945030162083931,0
360,0.014399999999999968,5.000049991798719,0.005397163818512657,0.003333674279268718,0
361,0.014440000000000008,5.000707572102282,0.003424424840084442,0.0013561699712416426,0
362,0.014480000000000048,4.99972120164681,0.00506837398845672,0.002995366364464104,0
363,0.014520000000000088,5.000049991798719,0.004082004499051814,0.0020042567123747593,0
364,0.014559999999999906,5.000378781950543,0.005397163818512657,0.0033146884795489527,0
365,0.014599999999999946,5.000049991798719,0.005397163818512657,0.0033099735555084373,0
366,0.014639999999999986,4.99972120164681,0.009342641789095676,0.007250749248061202,0
367,0.014680000000000026,5.000049991798719,0.005397163818512657,0.003300581663137969,0
368,0.014720000000000066,5.000049991798719,0.004082004499051814,0.001980745410622221,0
369,0.014760000000000106,4.99972120164681,0.0007941062093044515,-0.0013118171133840884,0
370,0.014799999999999924,4.99972120164681,0.004082004499051814,0.001971429658326163,0
371,0.014839999999999964,4.99972120164681,0.006383533309443135,0.004268319684243198,0
372,0.014880000000000004,5.000049991798719,0.008027482463535476,0.00590764280468003,0
373,0.014920000000000044,4.99972120164681,0.006054743479005864,0.003930290554484472,0
374,0.014960000000000084,5.000378781950543,0.005725953648695714,0.0035969002435834213,0
375,0.014999999999999902,4.99972120164681,0.006712323140007484,0.004578682056379389,0
376,0.015039999999999942,4.999392411494816,0.005397163818512657,0.0032589478753583404,0
377,0.015079999999999982,5.000378781950543,0.005725953648695714,0.003583175681833526,0
378,0.015120000000000022,5.000378781950543,0.005397163818512657,0.0032498366805038897,0
379,0.015160000000000062,4.999392411494816,0.0076986926324629085,0.00554682919252582,0
380,0.015200000000000102,4.99972120164681,0.004739584158527918,0.002583197302451647,0
381,0.01523999999999992,4.99972120164681,0.003753214669504526,0.0015923172995628487,0
382,0.01527999999999996,5.000378781950543,0.004410794328726292,0.002245399363591273,0
383,0.01532,4.99972120164681,0.0024380553525874815,0.00026817572724299743,0
384,0.01536000000000004,4.99972120164681,0.00506837398845672,0.0028940226541118337,0
385,0.01540000000000008,5.000049991798719,0.005397163818512657,0.003218353742514885,0
386,0.015439999999999898,5.000049991798719,0.009342641789095676,0.0071593859548441125,0
387,0.015479999999999938,4.999392411494816,0.006383533309443135,0.004195844716301458,0
388,0.015519999999999978,4.999063621342738,0.006054743479005864,0.003862635142215186,0
389,0.015560000000000018,4.99972120164681,0.005397163818512657,0.0032006487691042737,0
390,0.015600000000000058,4.999392411494816,0.005397163818512657,0.003196255103220658,0
391,0.0156400000000001,5.000049991798719,0.004082004499051814,0.0018767151802255543,0
392,0.015679999999999916,5.000378781950543,0.0024380553525874815,0.00022839850810391863,0
393,0.015719999999999956,5.000049991798719,0.00506837398845672,0.002854362711632639,0
394,0.015759999999999996,5.000707572102282,0.005397163818512657,0.003178811218016774,0
395,0.015800000000000036,4.99972120164681,0.0007941062093044515,-0.0014285745909306266,0
396,0.015840000000000076,4.99972120164681,0.0021092655236763236,-0.00011773033718961209,0
397,0.015879999999999894,4.999392411494816,0.006054743479005864,0.0038234457117048665,0
398,0.015919999999999934,4.999063621342738,0.005397163818512657,0.0031615773139714713,0
399,0.015959999999999974,4.99972120164681,0.005725953648695714,0.0034860915910197784,0
400,0.016000000000000014,5.000707572102282,0.0076986926324629085,0.005454568220579606,0
401,0.016040000000000054,5.000049991798719,0.005725953648695714,0.003477580096265647,0
402,0.016080000000000094,4.99972120164681,0.007369902801517392,0.005117293336845526,0
403,0.016119999999999912,5.000707572102282,0.0030956350107915753,0.0008388028767382918,0
404,0.016159999999999952,5.000378781950543,0.004082004499051814,0.0018209629529438208,0
405,0.016199999999999992,5.000049991798719,0.003424424840084442,0.0011591871536256,0
406,0.016240000000000032,5.000378781950543,0.0024380553525874815,0.00016863481176950402,0
407,0.016280000000000072,5.000049991798719,0.004739584158527918,0.002465994063540946,0
408,0.016320000000000112,4.99972120164681,0.0027668451816259126,0.0004890988467689972,0
409,0.01635999999999993,5.000378781950543,0.006383533309443135,0.004101644063034584,0
410,0.01639999999999997,5.000378781950543,0.0021092655236763236,-0.0001767532920360134,0
411,0.01644000000000001,5.000049991798719,0.004082004499051814,0.0017918694701232196,0
412,0.01648000000000005,5.000049991798719,0.003753214669504526,0.001458976797196961,0
413,0.01652000000000009,5.000707572102282,-0.0005210531030302584,-0.002819380435219787,0
414,0.016559999999999908,4.99972120164681,0.004082004499051814,0.0017796011040468965,0
415,0.016599999999999948,5.000049991798719,0.0024380553525874815,0.00013158930531309825,0
416,0.016639999999999988,4.99972120164681,0.004410794328726292,0.002100279053117338,0
417,0.016680000000000028,5.000049991798719,0.0014516858662357995,-0.0008628652004743029,0
418,0.016720000000000068,5.001036362253937,0.007369902801517392,0.005051329394147502,0
419,0.016760000000000108,4.99972120164681,0.0007941062093044515,-0.0015284760751665674,0
420,0.016799999999999926,5.000049991798719,0.0024380553525874815,0.0001114776676004849,0
421,0.016839999999999966,4.998734831190575,0.004082004499051814,0.0017514449030696282,0
422,0.016880000000000006,4.999392411494816,0.003424424840084442,0.0010898968354725149,0
423,0.016920000000000046,4.998734831190575,0.008356272294735026,0.00601778939661239,0
424,0.016960000000000086,5.000378781950543,0.0030956350107915753,0.0007532107469396931,0
425,0.016999999999999904,5.000049991798719,0.006712323140007484,0.004365971050778966,0
426,0.017039999999999944,4.999392411494816,0.001780475694892425,-0.0005697906668803016,0
427,0.017079999999999984,4.99972120164681,-0.0008498429307955274,-0.003204009999891684,0
428,0.017120000000000024,4.999063621342738,-0.0005210531030302584,-0.0028791073019322376,0
429,0.017160000000000064,5.000049991798719,0.0021092655236763236,-0.0002526622153086683,0
430,0.017200000000000104,4.999392411494816,0.0004653163810297567,-0.0019004712962019544,0
431,0.017239999999999922,4.999392411494816,0.004082004499051814,0.0017123704974313448,0
432,0.017279999999999962,5.003995473615012,0.004410794328726292,0.0020373276285048196,0
433,0.017320000000000002,4.9970908804284875,0.005397163818512657,0.0030198780573157612,0
434,0.017360000000000042,5.000049991798719,0.0024380553525874815,5.696417978652557e-05,0
435,0.017400000000000082,5.000049991798719,0.0014516858662357995,-0.0009331970571442097,0
436,0.0174399999999999,5.000049991798719,-0.001178632758433426,-0.003567293759806066,0
437,0.01747999999999994,5.000378781950543,-0.00019226327513760522,-0.0025846886704473685,0
438,0.01751999999999998,5.000049991798719,0.0014516858662357995,-0.0009444902275788812,0
439,0.01756000000000002,4.99972120164681,0.0004653163810297567,-0.0019345967045734285,0
440,0.01760000000000006,4.99972120164681,0.0027668451816259126,0.00036320882214226514,0
441,0.0176400000000001,4.99972120164681,0.006054743479005864,0.003647397574648778,0
442,0.017679999999999918,4.999392411494816,0.009342641789095676,0.006931600079878426,0
443,0.017719999999999958,4.999392411494816,0.0007941062093044515,-0.0016206175538462427,0
444,0.017759999999999998,5.000049991798719,0.00506837398845672,0.00264998193311982,0
445,0.017800000000000038,5.000049991798719,0.004082004499051814,0.0016599579240035196,0
446,0.017840000000000078,5.000378781950543,0.0030956350107915753,0.000669947699141203,0
447,0.017879999999999896,5.000378781950543,-0.0018362124133269458,-0.004265526667928697,0
448,0.017919999999999936,4.999392411494816,-0.00019226327513760522,-0.0026251906685918758,0
449,0.017959999999999976,4.99972120164681,0.004410794328726292,0.0019742676108732427,0
450,0.018000000000000016,5.000378781950543,0.003753214669504526,0.0013131024519679735,0
451,0.018040000000000056,5.000049991798719,0.0030956350107915753,0.0006519511284548817,0
452,0.018080000000000096,4.99972120164681,0.0021092655236763236,-0.0003379761785025741,0
453,0.018119999999999914,5.000378781950543,0.00013652655288240445,-0.002314259114199777,0
454,0.018159999999999954,5.000049991798719,0.0014516858662357995,-0.0010026299009234102,0
455,0.018199999999999994,5.000049991798719,0.00013652655288240445,-0.0023213054397339516,0
456,0.018240000000000034,5.000378781950543,0.0007941062093044515,-0.0016672281244493282,0
457,0.018280000000000074,4.99972120164681,0.0024380553525874815,-2.6767428378021013e-05,0
458,0.018320000000000114,4.99972120164681,0.00506837398845672,0.0026000766637172264,0
459,0.018359999999999932,4.999063621342738,0.005725953648695714,0.0032541956930379904,0
460,0.018399999999999972,5.000049991798719,0.004082004499051814,0.0016067998346555802,0
461,0.018440000000000012,5.000378781950543,0.0024380553525874815,-4.058208913773013e-05,0
462,0.018480000000000052,5.000378781950543,-0.0008498429307955274,-0.0033318992093045747,0
463,0.018520000000000092,4.999392411494816,-0.004466531027802631,-0.006951992193509036,0
464,0.01855999999999991,4.999392411494816,0.00013652655288240445,-0.002352325541487895,0
465,0.01859999999999995,5.000378781950543,0.003753214669504526,0.001260985613856385,0
466,0.01863999999999999,5.000049991798719,0.001780475694892425,-0.0007151163458894031,0
467,0.01868000000000003,4.99972120164681,0.003753214669504526,0.0012542736283967003,0
468,0.01872000000000007,5.000049991798719,0.00506837398845672,0.0025660979403995202,0
469,0.01876000000000011,5.000049991798719,0.00506837398845672,0.0025627769353010156,0
470,0.018799999999999928,4.99972120164681,0.00013652655288240445,-0.0023723774951414254,0
471,0.018839999999999968,5.000049991798719,-0.002165002240582567,-0.0046771992649594415,0
472,0.018880000000000008,5.000049991798719,-0.004466531027802631,-0.00698200700182762,0
473,0.018920000000000048,5.000378781950543,-0.00019226327513760522,-0.0027110041640108365,0
474,0.018960000000000088,4.99972120164681,0.0030956350107915753,0.0005736432498699628,0
475,0.018999999999999906,4.99972120164681,0.004739584158527918,0.0022143555762627505,0
476,0.019039999999999946,5.000049991798719,0.004410794328726292,0.0018823429836322741,0
477,0.019079999999999986,4.99972120164681,0.001780475694892425,-0.0007511843468009927,0
478,0.019120000000000026,5.000378781950543,0.001122896037706475,-0.0014119586267373283,0
479,0.019160000000000066,5.000049991798719,0.0007941062093044515,-0.0017439289965163864,0
480,0.019200000000000106,5.000378781950543,0.00013652655288240445,-0.0024046751055130594,0
481,0.019239999999999924,4.99972120164681,-0.0005210531030302584,-0.003065407117864216,0
482,0.019279999999999964,5.000049991798719,0.003424424840084442,0.0008769325721864527,0
483,0.019320000000000004,4.99972120164681,0.005725953648695714,0.003175337238251059,0
484,0.019360000000000044,4.999392411494816,0.001122896037706475,-0.001430830397720061,0
485,0.019400000000000084,5.000378781950543,0.0021092655236763236,-0.0004475568122154329,0
486,0.019439999999999902,5.000049991798719,-0.0015074225859438989,-0.004067326690927896,0
487,0.019479999999999942,5.000378781950543,0.0004653163810297567,-0.0020976553549128052,0
488,0.019519999999999982,4.999392411494816,0.001122896037706475,-0.0014431291843959217,0
489,0.019560000000000022,4.99972120164681,0.0014516858662357995,-0.0011173786906583487,0
490,0.019600000000000062,5.000049991798719,-0.0005210531030302584,-0.0030931428368744405,0
491,0.019640000000000102,5.000378781950543,0.0021092655236763236,-0.0004658352228983113,0
492,0.01967999999999992,5.000049991798719,-0.0005210531030302584,-0.0030991506918336817,0
493,0.01971999999999996,5.000049991798719,-0.00019226327513760522,-0.0027733435294819185,0
494,0.01976,4.99972120164681,0.0007941062093044515,-0.0017899425278024902,0
495,0.01980000000000004,4.99972120164681,0.0021092655236763236,-0.00047773750742053766,0
496,0.01984000000000008,5.000378781950543,0.00013652655288240445,-0.002453416577533168,0
497,0.019879999999999898,4.99972120164681,0.001780475694892425,-0.0008123933343681458,0
498,0.019919999999999938,5.000049991798719,0.001122896037706475,-0.0014728846842188923,0
499,0.019959999999999978,4.999392411494816,0.0024380553525874815,-0.00016062285021206137,0
500,0.020000000000000018,5.000049991798719,0.001780475694892425,-0.0008210857714763455,0
501,0.020040000000000058,5.000049991798719,0.0027668451816259126,0.00016241467441106047,0
502,0.020080000000000098,4.99972120164681,0.0021092655236763236,-0.0004980197963394065,0
503,0.020119999999999916,5.000049991798719,0.0014516858662357995,-0.0011584400333097128,0
504,0.020159999999999956,5.000049991798719,-0.001178632758433426,-0.0037915849991079255,0
505,0.020199999999999996,5.000049991798719,0.0007941062093044515,-0.0018216581290647765,0
506,0.020240000000000036,5.000049991798719,-0.0028225818947114484,-0.0054411440824039346,0
507,0.020280000000000076,5.000707572102282,-0.0005210531030302584,-0.0031423988868336345,0
508,0.020319999999999894,4.99972120164681,0.0004653163810297567,-0.002158798740927564,0
509,0.020359999999999934,5.000049991798719,0.0024380553525874815,-0.00018881484491862707,0
510,0.020399999999999974,4.99972120164681,0.001780475694892425,-0.0008491353110054705,0
511,0.020440000000000014,5.000049991798719,0.0030956350107915753,0.00046329746811433255,0
512,0.020480000000000054,5.000049991798719,0.001780475694892425,-0.0008545741085926933,0
513,0.020520000000000094,5.000378781950543,0.0024380553525874815,-0.00019969243147144843,0
514,0.02055999999999991,5.000378781950543,0.00013652655288240445,-0.002503904927350124,0
515,0.02059999999999995,5.000049991798719,-0.001178632758433426,-0.003821733646369666,0
516,0.02063999999999999,4.99972120164681,0.0014516858662357995,-0.0011940701369610712,0
517,0.02068000000000003,5.000049991798719,0.0021092655236763236,-0.0005391312984613919,0
518,0.02072000000000007,5.000049991798719,0.001122896037706475,-0.0015281273032721051,0
519,0.02076000000000011,5.000049991798719,0.001122896037706475,-0.001530739518329315,0
520,0.02079999999999993,5.000378781950543,0.0024380553525874815,-0.00021817811113471934,0
521,0.02083999999999997,4.999392411494816,-0.0008498429307955274,-0.0035086599913427413,0
522,0.02088000000000001,4.999392411494816,-0.0005210531030302584,-0.0031824394461470616,0
523,0.02092000000000005,5.000378781950543,-0.00019226327513760522,-0.0028562045832711044,0
524,0.02096000000000009,5.000049991798719,0.0024380553525874815,-0.00022842659980891944,0
525,0.020999999999999908,4.99972120164681,0.0007941062093044515,-0.0018749020634967273,0
526,0.021039999999999948,5.000049991798719,0.0021092655236763236,-0.0005622547426637559,0
527,0.021079999999999988,5.000378781950543,0.0007941062093044515,-0.001879911720797483,0
528,0.021120000000000028,5.000049991798719,0.003424424840084442,0.0007479235788122747,0
529,0.021160000000000068,4.99972120164681,0.0030956350107915753,0.00041666475365878444,0
530,0.021200000000000108,5.000378781950543,-0.001178632758433426,-0.0038600576734958486,0
531,0.021239999999999926,5.000049991798719,0.001122896037706475,-0.0015609691948298152,0
532,0.021279999999999966,4.99972120164681,0.0014516858662357995,-0.0012346053408904085,0
533,0.021320000000000006,5.000049991798719,-0.00019226327513760522,-0.002880966111638208,0
534,0.021360000000000046,4.99972120164681,0.001780475694892425,-0.0009106244235320806,0
535,0.021400000000000086,4.99972120164681,0.005397163818512657,0.002703680767753111,0
536,0.021439999999999904,5.000049991798719,0.003424424840084442,0.0007285732086204952,0
537,0.021479999999999944,5.000049991798719,0.004410794328726292,0.0017125884701337548,0
538,0.021519999999999984,5.000049991798719,0.0027668451816259126,6.629945132917685e-05,0
539,0.021560000000000024,5.000049991798719,0.00013652655288240445,-0.00256634469194215,0
540,0.021600000000000064,4.99972120164681,-0.0005210531030302584,-0.003226235503550853,0
541,0.021640000000000104,5.000378781950543,-0.001178632758433426,-0.003886111954259454,0
542,0.02167999999999992,5.000378781950543,-0.0015074225859438989,-0.004217184215222497,0
543,0.02171999999999996,4.99972120164681,0.0014516858662357995,-0.0012603438332768175,0
544,0.02176,5.000049991798719,0.004410794328726292,0.0016965109234673272,0
545,0.02180000000000004,5.000378781950543,0.0027668451816259126,5.032243628084413e-05,0
546,0.02184000000000008,5.000049991798719,0.0030956350107915753,0.0003768872920966574,0
547,0.0218799999999999,5.000049991798719,0.003424424840084442,0.0007034665157554076,0
548,0.02191999999999994,5.000049991798719,0.0030956350107915753,0.00037248044942710763,0
549,0.02195999999999998,5.000378781950543,0.006054743479005864,0.003329407049991077,0
550,0.02200000000000002,5.000049991798719,0.004739584158527918,0.002012080231937865,0
551,0.02204000000000006,5.000049991798719,0.004410794328726292,0.00168113727522947,0
552,0.0220800000000001,5.000378781950543,0.001780475694892425,-0.0009513201143456947,0
553,0.022119999999999918,4.99972120164681,0.0027668451816259126,3.292498821248161e-05,0
554,0.022159999999999958,5.000049991798719,0.0024380553525874815,-0.000297974853131188,0
555,0.022199999999999998,4.99972120164681,0.003753214669504526,0.0010150888235583564,0
556,0.022240000000000038,5.000378781950543,0.003753214669504526,0.0010130075555198656,0
557,0.022280000000000078,4.99972120164681,0.00506837398845672,0.0023260999786374665,0
558,0.022319999999999895,5.000378781950543,0.0004653163810297567,-0.002279010152501657,0
559,0.022359999999999935,5.000049991798719,0.0030956350107915753,0.0003492703254926268,0
560,0.022399999999999975,5.000707572102282,0.0030956350107915753,0.0003472465453956226,0
561,0.022440000000000015,5.000049991798719,0.0030956350107915753,0.00034523713659876786,0
562,0.022480000000000055,5.000378781950543,0.0021092655236763236,-0.000643127388479818,0
563,0.022520000000000095,5.000378781950543,0.00506837398845672,0.0023140004086079097,0
564,0.022559999999999913,4.99972120164681,0.006383533309443135,0.003627193431513273,0
565,0.022599999999999953,5.000378781950543,0.0030956350107915753,0.0003373432036370542,0
566,0.022639999999999993,4.99972120164681,-0.0005210531030302584,-0.003281282471404426,0
567,0.022680000000000033,5.000049991798719,0.003753214669504526,0.0009910621069682286,0
568,0.022720000000000073,5.000049991798719,0.0014516858662357995,-0.0013123755244486678,0
569,0.022760000000000113,5.000049991798719,0.001780475694892425,-0.0009854801590658793,0
570,0.02279999999999993,5.000049991798719,0.0030956350107915753,0.0003277990571981292,0
571,0.02283999999999997,5.000378781950543,0.003424424840084442,0.0006547231491629342,0
572,0.02288000000000001,5.000707572102282,0.003753214669504526,0.0009816616021344723,0
573,0.02292000000000005,5.000378781950543,0.0007941062093044515,-0.0019792838751581093,0
574,0.02296000000000009,5.000049991798719,-0.0028225818947114484,-0.005597794638529833,0
575,0.02299999999999991,5.000049991798719,0.0014516858662357995,-0.0013253351809169212,0
576,0.02303999999999995,5.000049991798719,0.0004653163810297567,-0.002313498615246801,0
577,0.02307999999999999,5.000049991798719,0.007369902801517392,0.00458930820842072,0
578,0.02312000000000003,5.000049991798719,0.007369902801517392,0.004587542961901845,0
579,0.02316000000000007,5.000378781950543,0.0021092655236763236,-0.0006748452142550571,0
580,0.02320000000000011,4.99972120164681,0.003424424840084442,0.0006385775498463958,0
581,0.023239999999999927,5.000049991798719,0.005725953648695714,0.002938384149870699,0
582,0.023279999999999967,4.99972120164681,0.006054743479005864,0.003265466112928526,0
583,0.023320000000000007,5.000049991798719,0.0030956350107915753,0.0003046641163159732,0
584,0.023360000000000047,4.99972120164681,0.001780475694892425,-0.0010121743917034646,0
585,0.023400000000000087,4.99972120164681,0.003753214669504526,0.000958899724394805,0
586,0.023439999999999905,4.99972120164681,0.0007941062093044515,-0.0020018592634795545,0
587,0.023479999999999945,4.99972120164681,0.0021092655236763236,-0.0006883361488046898,0
588,0.023519999999999985,5.000049991798719,0.006054743479005864,0.0032555199318475606,0
589,0.023560000000000025,5.000378781950543,0.005725953648695714,0.0029251225488270325,0
590,0.023600000000000065,4.99972120164681,0.004082004499051814,0.0012795801652916434,0
591,0.023640000000000105,5.000378781950543,0.0030956350107915753,0.0002916317587156167,0
592,0.023679999999999923,5.000049991798719,0.004082004499051814,0.001276436640897466,0
593,0.023719999999999963,5.000707572102282,0.00506837398845672,0.002261255833028021,0
594,0.023760000000000003,5.000049991798719,0.004739584158527918,0.001930930011100533,0
595,0.023800000000000043,4.99972120164681,0.0027668451816259126,-4.333065614781561e-05,0
596,0.023840000000000083,5.000378781950543,0.004739584158527918,0.0019279009283419647,0
597,0.0238799999999999,5.000378781950543,0.003753214669504526,0.0009400383410274136,0
598,0.02391999999999994,5.000378781950543,0.004739584158527918,0.0019249290219728666,0
599,0.02395999999999998,5.000707572102282,0.004739584158527918,0.0019234645001055821,0
600,0.02400000000000002,5.000049991798719,0.00506837398845672,0.0022508040902805117,0
601,0.02404000000000006,5.000378781950543,0.004739584158527918,0.0019205782985193857,0
602,0.0240800000000001,5.000049991798719,0.005397163818512657,0.0025767362703069327,0
603,0.02411999999999992,5.000049991798719,0.004739584158527918,0.0019177491913792164,0
604,0.02415999999999996,4.99972120164681,0.00013652655288240445,-0.002686701568430412,0
605,0.0242,4.999392411494816,0.004082004499051814,0.001257397483784007,0
606,0.02424000000000004,5.000049991798719,0.0030956350107915753,0.0002696633571138763,0
607,0.02428000000000008,4.99972120164681,0.003753214669504526,0.000925892628203747,0
608,0.024319999999999897,4.99972120164681,0.005397163818512657,0.0025685056355231393,0
609,0.024359999999999937,5.000378781950543,0.004410794328726292,0.001580814245035786,0
610,0.024399999999999977,4.99972120164681,0.0030956350107915753,0.00026434726234718007,0
611,0.024440000000000017,5.000378781950543,0.0030956350107915753,0.00026305382840574273,0
612,0.024480000000000057,5.000049991798719,0.004082004499051814,0.001248144108308423,0
613,0.024520000000000097,4.99972120164681,0.001780475694892425,-0.0010546496839470764,0
614,0.024559999999999915,5.000378781950543,0.004410794328726292,0.0015744181766358973,0
615,0.024599999999999955,5.000049991798719,0.005725953648695714,0.002888340932689703,0
616,0.024639999999999995,4.99972120164681,0.006383533309443135,0.0035446982332531917,0
617,0.024680000000000035,4.999392411494816,0.003424424840084442,0.0005843816017450864,0
618,0.024720000000000075,5.000049991798719,0.0027668451816259126,-7.439202661900794e-05,0
619,0.024759999999999893,4.99972120164681,0.0004653163810297567,-0.0023771006107609722,0
620,0.024799999999999933,5.000049991798719,0.00506837398845672,0.002224791393502492,0
621,0.024839999999999973,5.000049991798719,0.006712323140007484,0.0038675891162013518,0
622,0.024880000000000013,5.000049991798719,0.005725953648695714,0.0028800823641853515,0
623,0.024920000000000053,5.000049991798719,0.006054743479005864,0.0032077490956818936,0
624,0.024960000000000093,4.99972120164681,0.005397163818512657,0.0025490604919156043,0
625,0.02499999999999991,5.000049991798719,0.006712323140007484,0.0038631250192348015,0
626,0.02503999999999995,5.000049991798719,0.004410794328726292,0.0015605155563394642,0
627,0.02507999999999999,5.000049991798719,0.0030956350107915753,0.0002442897227232896,0
628,0.02512000000000003,5.000049991798719,0.00506837398845672,0.002215976313918133,0
629,0.02516000000000007,4.999392411494816,0.006054743479005864,0.0032013075403939436,0
630,0.02520000000000011,5.001365152405508,0.007369902801517392,0.004515442714322337,0
631,0.02523999999999993,4.999392411494816,0.009342641789095676,0.006487171661808428,0
632,0.02527999999999997,5.001036362253937,0.006712323140007484,0.0038558570740273267,0
633,0.02532000000000001,5.000707572102282,0.0076986926324629085,0.004841244722005133,0
634,0.02536000000000005,4.998077250885994,0.006383533309443135,0.0035251176414468222,0
635,0.02540000000000009,5.001036362253937,0.006054743479005864,0.0031953741330417325,0
636,0.025439999999999907,4.99972120164681,0.0076986926324629085,0.00483838368064126,0
637,0.025479999999999947,5.002680313010939,0.010000221452637598,0.007138986959516348,0
638,0.025519999999999987,5.000707572102282,0.007041112970698912,0.004178966993191688,0
639,0.025560000000000027,4.99972120164681,0.006383533309443135,0.0035204898967274643,0
640,0.025600000000000067,4.997748460733576,0.0076986926324629085,0.0048347658258885255,0
641,0.025640000000000107,4.99972120164681,0.0014516858662357995,-0.0014131103007669764,0
642,0.025679999999999925,5.001693942556992,0.001122896037706475,-0.0017427554643053454,0
643,0.025719999999999965,4.99972120164681,0.003753214669504526,0.0008867218498006064,0
644,0.025760000000000005,4.99972120164681,0.008685062126061585,0.005817741997788752,0
645,0.025800000000000045,4.99972120164681,0.0076986926324629085,0.004830559196459328,0
646,0.025840000000000085,4.99972120164681,0.005397163818512657,0.002528231067240304,0
647,0.025879999999999903,4.99972120164681,0.003753214669504526,0.0008834965869580966,0
648,0.025919999999999943,5.000378781950543,0.00506837398845672,0.0021978845500726513,0
649,0.025959999999999983,5.000049991798719,0.004739584158527918,0.0018683373310935023,0
650,0.026000000000000023,4.99972120164681,0.005725953648695714,0.0028539633902583046,0
651,0.026040000000000063,5.000378781950543,0.00506837398845672,0.0021956542482330296,0
652,0.026080000000000103,4.99972120164681,0.0030956350107915753,0.00022219972907706886,0
653,0.02611999999999992,5.000049991798719,0.005397163818512657,0.002523026926591043,0
654,0.02615999999999996,5.000049991798719,0.004739584158527918,0.001864759578580743,0
655,0.0262,4.99972120164681,0.0027668451816259126,-0.00010865317335775069,0
656,0.02624000000000004,4.99972120164681,0.003424424840084442,0.0005482666137706714,0
657,0.02628000000000008,5.000378781950543,0.00506837398845672,0.002191569785146427,0
658,0.0263199999999999,5.000049991798719,0.0030956350107915753,0.00021819871535553757,0
659,0.02635999999999994,5.000049991798719,0.004739584158527918,0.0018615296462841967,0
660,0.02639999999999998,4.99972120164681,0.004082004499051814,0.0012033456356759578,0
661,0.02644000000000002,5.000049991798719,0.006383533309443135,0.0035042839508784714,0
662,0.02648000000000006,4.99972120164681,0.003424424840084442,0.0005445988324524916,0
663,0.0265200000000001,5.000049991798719,0.005397163818512657,0.0025167749980236228,0
664,0.026559999999999917,5.000049991798719,0.007041112970698912,0.004160175163562296,0
665,0.026599999999999957,5.000378781950543,0.005725953648695714,0.002844480671031022,0
666,0.026639999999999997,5.000049991798719,0.00506837398845672,0.002186379646204274,0
667,0.026680000000000037,5.000378781950543,0.006054743479005864,0.003172241567837716,0
668,0.026720000000000077,5.000049991798719,0.009013851957515154,0.0061308562627461205,0
669,0.026759999999999895,5.000707572102282,0.005725953648695714,0.002842477945194515,0
670,0.026799999999999935,4.99972120164681,0.006054743479005864,0.0031708015311063525,0
671,0.026839999999999975,4.999392411494816,0.008685062126061585,0.0058006676874740965,0
672,0.026880000000000015,5.000378781950543,0.005397163818512657,0.0025123306322354685,0
673,0.026920000000000055,4.999392411494816,0.005725953648695714,0.0028406954469266076,0
674,0.026960000000000095,4.99972120164681,0.0024380553525874815,-0.00044761414336456614,0
675,0.026999999999999913,5.000049991798719,0.0024380553525874815,-0.0004480117272155403,0
676,0.027039999999999953,5.000049991798719,0.0021092655236763236,-0.0007771854407107909,0
677,0.027079999999999993,4.999392411494816,0.0021092655236763236,-0.0007775556371810649,0
678,0.027120000000000033,5.000049991798719,0.006054743479005864,0.0031675657985511018,0
679,0.027160000000000073,5.000049991798719,0.005725953648695714,0.0028384331141878293,0
680,0.027200000000000113,5.000049991798719,0.01032901128459894,0.007441161550165901,0
681,0.02723999999999993,5.000707572102282,0.01032901128459894,0.007440845992864921,0
682,0.02727999999999997,5.000049991798719,0.009671431620803153,0.006782964402801134,0
683,0.02732000000000001,5.000049991798719,0.006712323140007484,0.0038235676150919842,0
684,0.02736000000000005,5.000049991798719,0.004410794328726292,0.0015217641044862292,0
685,0.02740000000000009,5.000378781950543,0.004410794328726292,0.0015215030008979822,0
686,0.02743999999999991,4.99972120164681,0.005397163818512657,0.0025076249708929476,0
687,0.02747999999999995,4.999392411494816,0.006383533309443135,0.0034937605138026543,0
688,0.02751999999999999,5.000378781950543,0.007369902801517392,0.004479909617513919,0
689,0.02756000000000003,5.000378781950543,0.005725953648695714,0.0028357536237876703,0
690,0.02760000000000007,5.000049991798719,0.005725953648695714,0.002835560318055764,0
691,0.02764000000000011,5.000049991798719,0.007369902801517392,0.004479329687946181,0
692,0.027679999999999927,5.000049991798719,0.006712323140007484,0.003821583753847509,0
693,0.027719999999999967,5.000378781950543,0.007369902801517392,0.004479010640566994,0
694,0.027760000000000007,4.99972120164681,0.005725953648695714,0.0028349221981232146,0
695,0.027800000000000047,5.000378781950543,0.006054743479005864,0.003163586211263818,0
696,0.027840000000000087,4.99972120164681,0.005397163818512657,0.002505894193252251,0
697,0.027879999999999905,5.000049991798719,0.009013851957515154,0.006122483421500721,0
698,0.027919999999999945,5.000049991798719,0.007369902801517392,0.004478448788541072,0
699,0.027959999999999985,4.999392411494816,0.006054743479005864,0.003163217409802379,0
700,0.028000000000000025,4.99972120164681,0.008027482463535476,0.005135897745697036,0
701,0.028040000000000065,4.99972120164681,0.005397163818512657,0.0025055338464040136,0
702,0.028080000000000105,5.000378781950543,0.005397163818512657,0.002505501973186269,0
703,0.028119999999999923,5.000378781950543,0.006712323140007484,0.003820642789118826,0
704,0.028159999999999963,4.99972120164681,0.008027482463535476,0.005135796961258482,0
705,0.028200000000000003,4.99972120164681,0.011315380781244458,0.008423703468187094,0
706,0.028240000000000043,5.000378781950543,0.005725953648695714,0.0028342978518157056,0
707,0.028280000000000083,5.000378781950543,0.007369902801517392,0.004478281834038031,0
708,0.0283199999999999,5.000707572102282,0.003753214669504526,0.0008616418308306569,0
709,0.02835999999999994,5.000378781950543,0.00506837398845672,0.0021768625640908174,0
710,0.02839999999999998,5.000049991798719,0.001780475694892425,-0.0011109610436491643,0
711,0.02844000000000002,5.000378781950543,0.004082004499051814,0.0011906557037811216,0
712,0.02848000000000006,4.998734831190575,0.006383533309443135,0.0034922857007366813,0
713,0.0285200000000001,5.000049991798719,0.006054743479005864,0.0031636102859204087,0
714,0.02855999999999992,4.99972120164681,0.0076986926324629085,0.004807687069735417,0
715,0.02859999999999996,4.99972120164681,0.008027482463535476,0.005136617731500068,0
716,0.02864,4.999392411494816,0.005725953648695714,0.002835242933200738,0
717,0.02868000000000004,5.000049991798719,0.003424424840084442,0.0005338813124096888,0
718,0.02872000000000008,5.000378781950543,0.007369902801517392,0.0044795396182914565,0
719,0.028759999999999897,4.99972120164681,0.00506837398845672,0.0021782042915745176,0
720,0.028799999999999937,4.99972120164681,0.005725953648695714,0.0028359905652361054,0
721,0.028839999999999977,5.000049991798719,0.003424424840084442,0.0005346814822280439,0
722,0.028880000000000017,4.99972120164681,0.004082004499051814,0.0011924939639989351,0
723,0.028920000000000057,5.000049991798719,0.005397163818512657,0.002507899188401389,0
724,0.028960000000000097,4.99972120164681,0.004410794328726292,0.0015217886705507452,0
725,0.028999999999999915,4.99972120164681,0.005725953648695714,0.0028372200142243943,0
726,0.029039999999999955,5.000378781950543,0.0030956350107915753,0.0002071864364859232,0
727,0.029079999999999995,4.999392411494816,0.004739584158527918,0.0018514336654609845,0
728,0.029120000000000035,5.000049991798719,0.0027668451816259126,-0.00012099422459879022,0
729,0.029160000000000075,5.000378781950543,0.003753214669504526,0.0008656993401750062,0
730,0.029200000000000115,5.000049991798719,0.003424424840084442,0.000537246562071656,0
731,0.029239999999999933,4.99972120164681,0.003753214669504526,0.0008663864015179168,0
732,0.029279999999999973,4.99972120164681,0.007041112970698912,0.004154647655655261,0
733,0.029320000000000013,4.99972120164681,0.005725953648695714,0.002839864213638744,0
734,0.029360000000000053,4.999392411494816,0.004082004499051814,0.0011963038550719324,0
735,0.029400000000000093,4.99972120164681,0.0021092655236763236,-0.0007760334341694835,0
736,0.02943999999999991,5.000049991798719,0.004410794328726292,0.001525909935958167,0
737,0.02947999999999995,5.000049991798719,0.007041112970698912,0.004156656005758907,0
738,0.02951999999999999,4.99972120164681,0.006054743479005864,0.0031707267883716002,0
739,0.02956000000000003,5.000049991798719,0.005397163818512657,0.002513600232309453,0
740,0.02960000000000007,5.000049991798719,0.006383533309443135,0.0035004356413646793,0
741,0.02964000000000011,5.000378781950543,0.006054743479005864,0.0031721245262350505,0
742,0.02967999999999993,5.000049991798719,0.00506837398845672,0.002186246531586634,0
743,0.02971999999999997,5.000049991798719,0.004082004499051814,0.0012003813020068771,0
744,0.02976000000000001,5.000378781950543,0.0024380553525874815,-0.00044305083745523706,0
745,0.02980000000000005,5.000049991798719,0.0014516858662357995,-0.0014288905864535237,0
746,0.02984000000000009,4.99972120164681,0.004082004499051814,0.0012019704971627974,0
747,0.029879999999999907,5.000049991798719,0.005397163818512657,0.0025176849638883897,0
748,0.029919999999999947,5.000049991798719,0.008027482463535476,0.005148571435579882,0
749,0.029959999999999987,4.99972120164681,0.008356272294735026,0.00547794175571363,0
750,0.030000000000000027,4.999392411494816,0.006054743479005864,0.003177006073968058,0
751,0.030040000000000067,5.000378781950543,0.003753214669504526,0.0008760830262059915,0
752,0.030080000000000107,5.000049991798719,0.004082004499051814,0.0012054912278771134,0
753,0.030119999999999925,4.99972120164681,0.004739584158527918,0.0018637018524132426,0
754,0.030159999999999965,5.000049991798719,0.004410794328726292,0.0015355555630823807,0
755,0.030200000000000005,5.000049991798719,0.0030956350107915753,0.00022105234342679374,0
756,0.030240000000000045,5.000378781950543,0.005725953648695714,0.0028520396197393013,0
757,0.030280000000000085,5.000049991798719,0.00506837398845672,0.002195141120282213,0
758,0.030319999999999903,5.000049991798719,0.004739584158527918,0.0018670449556767218,0
759,0.030359999999999943,5.000049991798719,0.0027668451816259126,-0.00010498786926893934,0
760,0.030399999999999983,5.000049991798719,0.0027668451816259126,-0.00010426924866402225,0
761,0.030440000000000023,5.000049991798719,0.004739584158527918,0.0018692007994311095,0
762,0.030480000000000063,5.000049991798719,0.0076986926324629085,0.004829052777011341,0
763,0.030520000000000103,5.000049991798719,0.006712323140007484,0.0038434392024416066,0
764,0.03055999999999992,5.000049991798719,0.0024380553525874815,-0.0004300602711393331,0
765,0.03059999999999996,4.99972120164681,0.004082004499051814,0.0012146695667551181,0
766,0.03064,4.99972120164681,0.0021092655236763236,-0.0007572763580365629,0
767,0.03068000000000004,5.000049991798719,0.0021092655236763236,-0.0007564709668113324,0
768,0.03072000000000008,5.000049991798719,0.003753214669504526,0.0008882958922965434,0
769,0.0307599999999999,5.000049991798719,0.004410794328726292,0.0015467055681909125,0
770,0.03079999999999994,4.99972120164681,0.00506837398845672,0.0022051275292509927,0
771,0.03083999999999998,4.99972120164681,0.004082004499051814,0.001219612607022713,0
772,0.03088000000000002,5.000049991798719,0.0030956350107915753,0.0002341099329019815,0
773,0.03092000000000006,4.99972120164681,0.004082004499051814,0.0012213584633066676,0
774,0.0309600000000001,4.99972120164681,0.001122896037706475,-0.0017368587469208854,0
775,0.030999999999999917,4.99972120164681,0.0007941062093044515,-0.0020647451343368903,0
776,0.031039999999999957,5.000378781950543,0.0030956350107915753,0.00023769927882607363,0
777,0.031079999999999997,5.000049991798719,0.00013652655288240445,-0.002720481415968968,0
778,0.031120000000000037,5.000049991798719,0.003753214669504526,0.0008971465958810773,0
779,0.031160000000000077,4.99972120164681,0.0014516858662357995,-0.00140343019944317,0
780,0.031199999999999894,5.000049991798719,0.0030956350107915753,0.0002414830463037972,0
781,0.031239999999999934,5.000049991798719,0.004410794328726292,0.0015576185391341817,0
782,0.031279999999999974,4.99972120164681,0.003424424840084442,0.0005722372794780149,0
783,0.031320000000000014,5.000378781950543,0.006383533309443135,0.0035323460122258987,0
784,0.031360000000000054,4.99972120164681,0.004082004499051814,0.0012318294798689185,0
785,0.031400000000000095,4.999392411494816,0.003424424840084442,0.0005752740937509926,0
786,0.03143999999999991,4.999392411494816,0.001122896037706475,-0.0017252184608639513,0
787,0.03147999999999995,5.000049991798719,0.004082004499051814,0.00123493820318514,0
788,0.03151999999999999,5.000049991798719,0.0014516858662357995,-0.00139432029203035,0
789,0.03156000000000003,5.000049991798719,0.003424424840084442,0.0005794907342006755,0
790,0.03160000000000007,5.000049991798719,0.003753214669504526,0.0009093645105993476,0
791,0.03164000000000011,5.000049991798719,0.0027668451816259126,-7.590915596070755e-05,0
792,0.03167999999999993,5.000378781950543,0.003753214669504526,0.0009115680072498155,0
793,0.03171999999999997,5.000378781950543,0.0021092655236763236,-0.0007312616296299224,0
794,0.03176000000000001,5.000378781950543,0.00013652655288240445,-0.0027028692783256226,0
795,0.03180000000000005,5.000049991798719,0.003424424840084442,0.000586172123587775,0
796,0.03184000000000009,5.000049991798719,0.0004653163810297567,-0.002371781448748626,0
797,0.03187999999999991,4.99972120164681,0.001122896037706475,-0.0017130351540223642,0
798,0.03191999999999995,5.000049991798719,0.003753214669504526,0.0009184618464115904,0
799,0.03195999999999999,5.000378781950543,0.003753214669504526,0.0009196519248199085,0
800,0.03200000000000003,5.000049991798719,0.001122896037706475,-0.0017094649396802194,0
801,0.03204000000000007,5.000378781950543,0.0030956350107915753,0.00026448746864092803,0
802,0.03208000000000011,4.99972120164681,0.0030956350107915753,0.00026571255079515816,0
803,0.032119999999999926,4.999392411494816,0.001780475694892425,-0.001048210057119801,0
804,0.032159999999999966,5.000378781950543,0.0007941062093044515,-0.0020333312300499255,0
805,0.032200000000000006,5.000049991798719,0.0027668451816259126,-5.933236162115169e-05,0
806,0.032240000000000046,5.001036362253937,0.003424424840084442,0.0005995187551022736,0
807,0.032280000000000086,5.000049991798719,0.00506837398845672,0.0022447509025376516,0
808,0.032319999999999904,5.000049991798719,-0.0008498429307955274,-0.003672171498279965,0
809,0.032359999999999944,5.000049991798719,-0.001178632758433426,-0.003999655309605486,0
810,0.032399999999999984,4.99972120164681,0.00013652655288240445,-0.002683178505660193,0
811,0.032440000000000024,4.99972120164681,0.004082004499051814,0.0012636283878283963,0
812,0.032480000000000064,5.000049991798719,0.001122896037706475,-0.0016941396932019107,0
813,0.032520000000000104,5.000049991798719,0.003753214669504526,0.0009375307301468307,0
814,0.03255999999999992,5.000378781950543,0.0027668451816259126,-4.747557677172755e-05,0
815,0.03259999999999996,4.99972120164681,0.001780475694892425,-0.00103247051502801,0
816,0.03264,5.000049991798719,0.0014516858662357995,-0.0013598744496481994,0
817,0.03268000000000004,5.000378781950543,-0.0024937920677107622,-0.005303955166022518,0
818,0.03272000000000008,4.99972120164681,0.00013652655288240445,-0.002672228026410032,0
819,0.0327599999999999,5.000049991798719,0.001780475694892425,-0.0010268590860874373,0
820,0.03279999999999994,5.000378781950543,0.003753214669504526,0.000947310943911787,0
821,0.03283999999999998,4.999392411494816,0.003753214669504526,0.0009487532340900761,0
822,0.03288000000000002,5.000378781950543,0.0007941062093044515,-0.0020089017234884037,0
823,0.03292000000000006,5.000378781950543,0.001122896037706475,-0.0016786472024336147,0
824,0.0329600000000001,4.99972120164681,-0.0018362124133269458,-0.004636279793259286,0
825,0.03299999999999992,5.000378781950543,-0.0018362124133269458,-0.0046347927880365965,0
826,0.03303999999999996,4.99972120164681,0.00013652655288240445,-0.002660555694193297,0
827,0.03308,4.99972120164681,-0.0005210531030302584,-0.003316626122727864,0
828,0.03312000000000004,5.000378781950543,0.0004653163810297567,-0.0023287363342759542,0
829,0.03316000000000008,4.99972120164681,0.001780475694892425,-0.001012045661800957,0
830,0.033199999999999896,5.000049991798719,0.0004653163810297567,-0.002325662585687034,0
831,0.033239999999999936,5.000378781950543,0.0007941062093044515,-0.0019953193589902682,0
832,0.033279999999999976,5.000378781950543,-0.0008498429307955274,-0.0036377041152038676,0
833,0.033320000000000016,4.99972120164681,-0.0008498429307955274,-0.0036361287688965434,0
834,0.033360000000000056,4.99972120164681,-0.0005210531030302584,-0.0033057526555083407,0
835,0.033400000000000096,4.99972120164681,-0.0024937920677107622,-0.005276894418417395,0
836,0.033439999999999914,5.000049991798719,-0.00019226327513760522,-0.002973757531152912,0
837,0.033479999999999954,5.000378781950543,0.003753214669504526,0.0009733393778104601,0
838,0.033519999999999994,5.000049991798719,-0.0018362124133269458,-0.004614457894420929,0
839,0.033560000000000034,5.000049991798719,0.0007941062093044515,-0.0019824986383226075,0
840,0.033600000000000074,5.001036362253937,-0.005452900506126915,-0.008227853920892885,0
841,0.033640000000000114,4.999063621342738,-0.002165002240582567,-0.004938293446626468,0
842,0.03367999999999993,5.000378781950543,-0.0024937920677107622,-0.00526541031276505,0
843,0.03371999999999997,5.001036362253937,0.005725953648695714,0.0029560190932450946,0
844,0.03376000000000001,4.997748460733576,-0.002165002240582567,-0.004933242401528752,0
845,0.03380000000000005,5.002022732708393,-0.00019226327513760522,-0.002958798360451522,0
846,0.03384000000000009,4.99972120164681,-0.0018362124133269458,-0.004601031765713056,0
847,0.03387999999999991,5.000707572102282,-0.0008498429307955274,-0.003612935916849783,0
848,0.03391999999999995,5.001036362253937,-0.0018362124133269458,-0.004597568423595745,0
849,0.03395999999999999,5.000049991798719,-0.0005210531030302584,-0.0032806615520691953,0
850,0.03400000000000003,4.999392411494816,0.0007941062093044515,-0.001963744117127933,0
851,0.03404000000000007,5.000378781950543,-0.002165002240582567,-0.004921083907157725,0
852,0.03408000000000011,4.999063621342738,-0.00019226327513760522,-0.002946565768788964,0
853,0.03411999999999993,5.000378781950543,-0.0031513717215847087,-0.005903884553487633,0
854,0.03415999999999997,5.000049991798719,-0.001178632758433426,-0.003929345464062862,0
855,0.03420000000000001,5.000707572102282,-0.002165002240582567,-0.004913904379770425,0
856,0.03424000000000005,5.000378781950543,-0.0024937920677107622,-0.005240873224703108,0
857,0.03428000000000009,4.99972120164681,-0.002165002240582567,-0.004910252024096582,0
858,0.034319999999999906,4.99972120164681,0.0014516858662357995,-0.001291722177044936,0
859,0.034359999999999946,5.000378781950543,0.0021092655236763236,-0.0006322904372005627,0
860,0.034399999999999986,5.000707572102282,-0.0024937920677107622,-0.005233485628653913,0
861,0.034440000000000026,5.000049991798719,0.003424424840084442,0.0006866039719081386,0
862,0.034480000000000066,5.000049991798719,-0.0015074225859438989,-0.004243360493272842,0
863,0.034520000000000106,5.000049991798719,-0.005124110680146385,-0.007858155383355717,0
864,0.034559999999999924,5.000378781950543,-0.00348016154833046,-0.006212302829011601,0
865,0.034599999999999964,5.000707572102282,-0.0031513717215847087,-0.005881599386247926,0
866,0.034640000000000004,4.99972120164681,-0.001178632758433426,-0.003906936638562812,0
867,0.034680000000000044,5.000378781950543,-0.0005210531030302584,-0.003247423055138459,0
868,0.034720000000000084,4.99972120164681,-0.0015074225859438989,-0.004231848491626621,0
869,0.0347599999999999,4.99972120164681,0.0007941062093044515,-0.001928365556685852,0
870,0.03479999999999994,5.000707572102282,-0.0005210531030302584,-0.003241560661252605,0
871,0.03483999999999998,5.000378781950543,-0.0005210531030302584,-0.003239586410654349,0
872,0.03488000000000002,5.000049991798719,-0.0024937920677107622,-0.0052103411072051365,0
873,0.03492000000000006,5.000049991798719,0.0007941062093044515,-0.001920448569880968,0
874,0.0349600000000001,4.99972120164681,-0.0015074225859438989,-0.004219973138046482,0
875,0.03499999999999992,5.000049991798719,-0.001178632758433426,-0.0038891691421375804,0
876,0.03503999999999996,4.99972120164681,-0.0018362124133269458,-0.004544724712828047,0
877,0.03508,4.99972120164681,-0.0005210531030302584,-0.003227531428087107,0
878,0.03512000000000004,5.000049991798719,0.001122896037706475,-0.00158153844828057,0
879,0.03516000000000008,4.99972120164681,0.0007941062093044515,-0.0019082745986548752,0
880,0.0351999999999999,5.000049991798719,-0.00348016154833046,-0.006180478865023554,0
881,0.03523999999999994,5.000378781950543,-0.00019226327513760522,-0.0028905073130968914,0
882,0.03527999999999998,5.000049991798719,0.0007941062093044515,-0.0019020547882756633,0
883,0.03532000000000002,5.000378781950543,0.0007941062093044515,-0.001899962012124405,0
884,0.03536000000000006,5.000049991798719,-0.0018362124133269458,-0.004528178148756554,0
885,0.0354000000000001,4.999392411494816,-0.001178632758433426,-0.003868486323990483,0
886,0.035439999999999916,5.000049991798719,0.0014516858662357995,-0.0012360458716004377,0
887,0.035479999999999956,5.000049991798719,-0.004137741201439435,-0.0068233414797817206,0
888,0.035519999999999996,5.000049991798719,-0.0047953208540382625,-0.007478780067238494,0
889,0.035560000000000036,5.000049991798719,-0.003808951374948702,-0.006490259943533437,0
890,0.035600000000000076,5.000049991798719,-0.0018362124133269458,-0.004515360784046811,0
891,0.035639999999999894,4.99972120164681,-0.0024937920677107622,-0.005170770713589642,0
892,0.035679999999999934,4.99972120164681,-0.0024937920677107622,-0.005168591488094747,0
893,0.035719999999999974,4.99972120164681,-0.0005210531030302584,-0.003193663823636352,0
894,0.035760000000000014,5.000049991798719,0.001122896037706475,-0.0015475165352581031,0
895,0.035800000000000054,5.000049991798719,-0.00019226327513760522,-0.00286046827906464,0
896,0.035840000000000094,4.99972120164681,0.0007941062093044515,-0.001871881830704595,0
897,0.03587999999999991,4.99972120164681,-0.0018362124133269458,-0.004499974121100878,0
898,0.03591999999999995,5.000049991798719,-0.0018362124133269458,-0.004497738447159457,0
899,0.03595999999999999,4.99972120164681,-0.004137741201439435,-0.0067970222462822825,0
900,0.03600000000000003,5.000378781950543,-0.0031513717215847087,-0.005808398489094731,0
901,0.03604000000000007,4.99972120164681,0.0007941062093044515,-0.0018606570192814275,0
902,0.03608000000000011,5.000378781950543,-0.0018362124133269458,-0.004488702868195737,0
903,0.03611999999999993,5.000378781950543,0.0024380553525874815,-0.00021215312061595524,0
904,0.03615999999999997,5.000378781950543,-0.001178632758433426,-0.003826550068913946,0
905,0.03620000000000001,4.99972120164681,-0.00019226327513760522,-0.0028378802687741606,0
906,0.03624000000000005,5.000378781950543,-0.00019226327513760522,-0.002835570824791201,0
907,0.03628000000000009,4.99972120164681,0.0004653163810297567,-0.002175672624529247,0
908,0.03631999999999991,4.99972120164681,0.0021092655236763236,-0.000529395864748876,0
909,0.03635999999999995,5.000378781950543,0.00013652655288240445,-0.0024997981724870118,0
910,0.03639999999999999,4.99972120164681,-0.0005210531030302584,-0.0031550321465837164,0
911,0.03644000000000003,5.000049991798719,0.003753214669504526,0.001121590299321078,0
912,0.03648000000000007,5.000049991798719,-0.002165002240582567,-0.004794262973092134,0
913,0.03652000000000011,4.99972120164681,-0.00019226327513760522,-0.0028191514329634487,0
914,0.036559999999999926,5.000049991798719,-0.0008498429307955274,-0.003474349604265387,0
915,0.036599999999999966,5.001036362253937,0.001780475694892425,-0.0008416406119301167,0
916,0.036640000000000006,5.000049991798719,0.00013652655288240445,-0.0024831905324254836,0
917,0.036680000000000046,4.999392411494816,0.0007941062093044515,-0.0018232028270882964,0
918,0.036720000000000086,5.000378781950543,0.001122896037706475,-0.0014919961498800786,0
919,0.036759999999999904,4.99972120164681,-0.00019226327513760522,-0.002804729841578685,0
920,0.036799999999999944,4.99972120164681,0.001780475694892425,-0.0008295565056577786,0
921,0.036839999999999984,5.000049991798719,-0.0015074225859438989,-0.004115011703493541,0
922,0.036880000000000024,5.000049991798719,-0.00348016154833046,-0.006085298893447182,0
923,0.036920000000000064,4.999392411494816,-0.002165002240582567,-0.004767679151552677,0
924,0.036960000000000104,5.000049991798719,-0.00019226327513760522,-0.0027924711180071604,0
925,0.03699999999999992,5.000049991798719,0.0024380553525874815,-0.00015967481602816502,0
926,0.03703999999999996,5.000049991798719,-0.0015074225859438989,-0.00410266650199346,0
927,0.03708,5.000049991798719,0.0030956350107915753,0.0005028858977387403,0
928,0.03712000000000004,4.99972120164681,0.001122896037706475,-0.0014673497498405993,0
929,0.03716000000000008,4.99972120164681,0.0014516858662357995,-0.0011360481012579388,0
930,0.0371999999999999,4.99972120164681,0.001122896037706475,-0.0014623176431873876,0
931,0.03723999999999994,4.99972120164681,0.0004653163810297567,-0.0021173685747580555,0
932,0.03727999999999998,4.99972120164681,0.001122896037706475,-0.0014572517825485578,0
933,0.03732000000000002,4.999392411494816,-0.0008498429307955274,-0.0034274452332093168,0
934,0.03736000000000006,5.000378781950543,0.001122896037706475,-0.001452152392714452,0
935,0.0374000000000001,4.99972120164681,0.0007941062093044515,-0.0017783800231671505,0
936,0.03743999999999992,5.000378781950543,0.0004653163810297567,-0.002104599355769285,0
937,0.03747999999999996,5.000378781950543,-0.0015074225859438989,-0.004074759557618184,0
938,0.03752,4.99972120164681,-0.0024937920677107622,-0.005058542033116694,0
939,0.03756000000000004,5.000378781950543,0.0004653163810297567,-0.0020968383653101295,0
940,0.03760000000000008,4.99972120164681,0.00013652655288240445,-0.002423024789976692,0
941,0.037639999999999896,5.000049991798719,-0.0008498429307955274,-0.003406782714178839,0
942,0.037679999999999936,5.000049991798719,0.001780475694892425,-0.0007738444014763974,0
943,0.037719999999999976,5.000049991798719,0.001122896037706475,-0.0014287962726017207,0
944,0.037760000000000016,5.000378781950543,-0.00019226327513760522,-0.00274131972886764,0
945,0.037800000000000056,5.000049991798719,0.001780475694892425,-0.0007659368603062924,0
946,0.037840000000000096,5.000049991798719,0.0021092655236763236,-0.0004344951196378053,0
947,0.037879999999999914,5.000049991798719,0.0007941062093044515,-0.0017469945374069715,0
948,0.037919999999999954,5.000707572102282,0.001122896037706475,-0.0014155368563542915,0
949,0.037959999999999994,5.000049991798719,-0.0015074225859438989,-0.004043179700010978,0
950,0.038000000000000034,4.99972120164681,-0.00019226327513760522,-0.00272533671060739,0
951,0.038040000000000074,4.999392411494816,0.0024380553525874815,-9.232653445505985e-05,0
952,0.038080000000000114,4.99972120164681,0.0004653163810297567,-0.0020623661165632364,0
953,0.03811999999999993,4.99972120164681,0.001780475694892425,-0.0007444996010700926,0
954,0.03815999999999997,5.000049991798719,0.0014516858662357995,-0.0010705744447901473,0
955,0.03820000000000001,5.000049991798719,-0.001178632758433426,-0.0036981703301247454,0
956,0.03824000000000005,4.99972120164681,-0.0031513717215847087,-0.005668178828484331,0
957,0.03828000000000009,4.99972120164681,-0.0024937920677107622,-0.005007861013335284,0
958,0.03831999999999991,5.000049991798719,-0.0018362124133269458,-0.004347535530199044,0
959,0.03835999999999995,4.99972120164681,-0.0015074225859438989,-0.004015992235624479,0
960,0.03839999999999999,5.000049991798719,-0.0018362124133269458,-0.004342020986447035,0
961,0.03844000000000003,5.000049991798719,0.001122896037706475,-0.0013801438785859066,0
962,0.03848000000000007,5.000378781950543,0.0027668451816259126,0.00026658147329533706,0
963,0.03852000000000011,4.99972120164681,0.001122896037706475,-0.0013745839406924258,0
964,0.03855999999999993,5.000049991798719,-0.0005210531030302584,-0.0030157418587226995,0
965,0.03859999999999997,4.99972120164681,-0.0015074225859438989,-0.003999312655380763,0
966,0.03864000000000001,5.000049991798719,0.001122896037706475,-0.001366187911181693,0
967,0.03868000000000005,5.000378781950543,0.00013652655288240445,-0.00234974387045,0
968,0.03872000000000009,4.99972120164681,0.004410794328726292,0.0019273448066408619,0
969,0.038759999999999906,4.99972120164681,0.004410794328726292,0.0019301730542336665,0
970,0.038799999999999946,4.99972120164681,0.001122896037706475,-0.0013548896722221744,0
971,0.038839999999999986,4.99972120164681,0.00013652655288240445,-0.0023384163049147725,0
972,0.038880000000000026,5.000378781950543,-0.0015074225859438989,-0.003979515333474529,0
973,0.038920000000000066,4.99972120164681,-0.002165002240582567,-0.004634237649172485,0
974,0.038960000000000106,4.99972120164681,-0.0005210531030302584,-0.0029874239734944334,0
975,0.038999999999999924,5.000378781950543,0.0021092655236763236,-0.00035423363899416034,0
976,0.039039999999999964,4.999063621342738,0.0030956350107915753,0.0006350146960379588,0
977,0.039080000000000004,5.000378781950543,0.003424424840084442,0.0009666904837986653,0
978,0.039120000000000044,5.000378781950543,0.00013652655288240445,-0.002318314763983926,0
979,0.039160000000000084,4.99972120164681,-0.0008498429307955274,-0.003301784156917086,0
980,0.0391999999999999,4.99972120164681,0.0030956350107915753,0.0006466008970871986,0
981,0.03923999999999994,4.99972120164681,-0.0015074225859438989,-0.003953542595237958,0
982,0.03927999999999998,5.000049991798719,0.001780475694892425,-0.0006627232477035834,0
983,0.03932000000000002,5.000378781950543,0.0027668451816259126,0.0003265742382844638,0
984,0.03936000000000006,5.000049991798719,0.0027668451816259126,0.00032950914033871674,0
985,0.0394000000000001,5.000378781950543,0.001122896037706475,-0.0013114982285089014,0
986,0.03943999999999992,5.000049991798719,0.001780475694892425,-0.000650969953040747,0
987,0.03947999999999996,4.99972120164681,0.00013652655288240445,-0.002291963663390134,0
988,0.03952,5.000378781950543,0.0021092655236763236,-0.0003162624774136298,0
989,0.03956000000000004,5.000049991798719,-0.0015074225859438989,-0.003929981618210039,0
990,0.03960000000000008,5.000049991798719,-0.00019226327513760522,-0.002611846614843422,0
991,0.0396399999999999,5.000049991798719,0.001122896037706475,-0.001293704915630934,0
992,0.03967999999999994,5.000049991798719,0.0027668451816259126,0.00035323327851312196,0
993,0.03971999999999998,5.000049991798719,0.0004653163810297567,-0.0019452998379772624,0
994,0.03976000000000002,5.000049991798719,0.0024380553525874815,3.0441421569406962e-05,0
995,0.03980000000000006,4.99972120164681,-0.0008498429307955274,-0.003254447999962104,0
996,0.0398400000000001,5.000049991798719,0.001780475694892425,-0.0006211139686031156,0
997,0.039879999999999916,5.000049991798719,-0.00019226327513760522,-0.0025908310192076693,0
998,0.039919999999999956,4.99972120164681,0.0007941062093044515,-0.0016014331316726404,0
999,0.039959999999999996,5.000707572102282,0.0004653163810297567,-0.001927188103295362,0
1000,0.040000000000000036,5.000049991798719,0.0024380553525874815,4.85921483435502e-05,0
1001,0.040040000000000076,5.000378781950543,0.003424424840084442,0.0010380093092001068,0
1002,0.040080000000000116,4.99972120164681,0.001780475694892425,-0.0006028857995254611,0
1003,0.040119999999999933,4.99972120164681,0.0014516858662357995,-0.0009286152588008291,0
1004,0.040159999999999973,4.99972120164681,0.0014516858662357995,-0.00092554858671702,0
1005,0.040200000000000014,5.000049991798719,0.0027668451816259126,0.00039268367322724783,0
1006,0.040240000000000054,5.000378781950543,0.003424424840084442,0.0010533425184583974,0
1007,0.040280000000000094,4.999392411494816,0.0030956350107915753,0.0007276380878853293,0
1008,0.04031999999999991,5.000049991798719,0.0007941062093044515,-0.0015707991332252493,0
1009,0.04035999999999995,4.99972120164681,0.0030956350107915753,0.0007338273999858537,0
1010,0.04039999999999999,4.99972120164681,0.0024380553525874815,7.935159452525896e-05,0
1011,0.04044000000000003,5.000378781950543,0.0024380553525874815,8.24615379420102e-05,0
1012,0.04048000000000007,4.999392411494816,0.0030956350107915753,0.0007431571998717679,0
1013,0.04052000000000011,5.000049991798719,0.0021092655236763236,-0.00024009025359104626,0
1014,0.04055999999999993,5.000378781950543,0.0014516858662357995,-0.0008945418778520311,0
1015,0.04059999999999997,5.000378781950543,0.001780475694892425,-0.0005626180469056954,0
1016,0.04064000000000001,4.999392411494816,0.0030956350107915753,0.0007556812099594138,0
1017,0.04068000000000005,5.000378781950543,0.0014516858662357995,-0.0008851220854048012,0
1018,0.04072000000000009,5.000049991798719,0.004410794328726292,0.0020771381040357428,0
1019,0.04075999999999991,5.000049991798719,0.0024380553525874815,0.00010755670212219629,0
1020,0.04079999999999995,4.99972120164681,0.001122896037706475,-0.001204439221757541,0
1021,0.04083999999999999,5.000049991798719,0.003424424840084442,0.0011002587578828465,0
1022,0.04088000000000003,5.000049991798719,0.0021092655236763236,-0.00021172562553193035,0
1023,0.04092000000000007,5.000378781950543,0.00506837398845672,0.002750563497427378,0
1024,0.04096000000000011,4.99972120164681,0.0021092655236763236,-0.0002053586145487024,0
1025,0.040999999999999925,5.000707572102282,0.00506837398845672,0.0027569418670866713,0
1026,0.041039999999999965,4.99972120164681,0.005397163818512657,0.0030889293474592296,0
1027,0.041080000000000005,4.99972120164681,0.0030956350107915753,0.0007906037929133864,0
1028,0.041120000000000045,4.99972120164681,0.001780475694892425,-0.0005213466975686845,0
1029,0.041160000000000085,4.99972120164681,0.003753214669504526,0.0014546066440720715,0
1030,0.0411999999999999,5.000049991798719,0.0007941062093044515,-0.0015012819381312555,0
1031,0.04123999999999994,5.000049991798719,0.0007941062093044515,-0.0014980565798228635,0
1032,0.04127999999999998,5.000049991798719,0.004739584158527918,0.00245065217735152,0
1033,0.04132000000000002,5.000049991798719,0.007369902801517392,0.005084207047252915,0
1034,0.04136000000000006,4.99972120164681,0.003424424840084442,0.0011419707009992274,0
1035,0.0414000000000001,5.000707572102282,0.009342641789095676,0.007063434622751524,0
1036,0.04143999999999992,5.000049991798719,0.009342641789095676,0.007066686922337284,0
1037,0.04147999999999996,4.99972120164681,0.00506837398845672,0.002795676717400339,0
1038,0.04152,5.000378781950543,0.004410794328726292,0.0021413599187486533,0
1039,0.04156000000000004,4.99972120164681,0.004082004499051814,0.0018158381847793656,0
1040,0.04160000000000008,5.000049991798719,0.0024380553525874815,0.00017516233788586856,0
1041,0.0416399999999999,4.99972120164681,0.006054743479005864,0.0037951289369696738,0
1042,0.04167999999999994,4.99972120164681,0.006383533309443135,0.0041272023823859276,0
1043,0.04171999999999998,5.000049991798719,0.005397163818512657,0.0031441216179572597,0
1044,0.04176000000000002,4.99972120164681,0.004739584158527918,0.0024898357651969992,0
1045,0.04180000000000006,5.000378781950543,0.0021092655236763236,-0.00013718401251676003,0
1046,0.0418400000000001,5.000707572102282,0.0004653163810297567,-0.0017778292789303173,0
1047,0.04187999999999992,4.998077250885994,0.0030956350107915753,0.0008557982153329122,0
1048,0.04191999999999996,5.001693942556992,0.001780475694892425,-0.00045604727863151045,0
1049,0.04196,4.999392411494816,0.0027668451816259126,0.0005336409566268755,0
1050,0.04200000000000004,4.999063621342738,0.004410794328726292,0.002180913747991401,0
1051,0.04204000000000008,5.002351522859708,0.003753214669504526,0.0015266625979146005,0
1052,0.042079999999999895,4.997419670581074,0.006712323140007484,0.0044891044115776685,0
1053,0.042119999999999935,5.000707572102282,0.0030956350107915753,0.0008757544286643821,0
1054,0.042159999999999975,4.999063621342738,0.003424424840084442,0.0012078871765230387,0
1055,0.042200000000000015,5.001036362253937,0.003753214669504526,0.0015400246658863097,0
1056,0.042240000000000055,5.001365152405508,0.003424424840084442,0.001214587206894868,0
1057,0.042280000000000095,4.999392411494816,0.0007941062093044515,-0.0014123743738688687,0
1058,0.04231999999999991,5.000707572102282,0.0030956350107915753,0.0008925161263186442,0
1059,0.04235999999999995,4.99972120164681,0.004082004499051814,0.0018822519310545908,0
1060,0.04239999999999999,5.000049991798719,0.007369902801517392,0.005173521136857278,0
1061,0.04244000000000003,4.99972120164681,0.007041112970698912,0.004848106765318592,0
1062,0.04248000000000007,5.000049991798719,0.003753214669504526,0.0015635884484233942,0
1063,0.04252000000000011,5.000049991798719,0.00506837398845672,0.002882132245766597,0
1064,0.04255999999999993,5.000049991798719,0.006054743479005864,0.0038718906778669885,0
1065,0.04259999999999997,5.000049991798719,0.004410794328726292,0.002231334901363587,0
1066,0.04264000000000001,5.000049991798719,0.003753214669504526,0.0015771530172041387,0
1067,0.04268000000000005,5.000049991798719,0.0030956350107915753,0.0009229755038977,0
1068,0.04272000000000009,4.99972120164681,0.004082004499051814,0.0019127514769637743,0
1069,0.04275999999999991,5.000049991798719,0.0021092655236763236,-5.657670515406277e-05,0
1070,0.04279999999999995,5.000049991798719,0.0027668451816259126,0.000604418023555119,0
1071,0.04283999999999999,5.000049991798719,0.004739584158527918,0.002580576317766689,0
1072,0.04288000000000003,5.000049991798719,0.0076986926324629085,0.005543108324607429,0
1073,0.04292000000000007,5.000049991798719,0.0076986926324629085,0.0055465360421540315,0
1074,0.04296000000000011,5.000378781950543,0.006383533309443135,0.004234808590365078,0
1075,0.04299999999999993,5.000049991798719,0.00506837398845672,0.0029230852633360463,0
1076,0.04303999999999997,4.999392411494816,0.003753214669504526,0.001611366030109392,0
1077,0.04308000000000001,4.999392411494816,0.006383533309443135,0.004245128816582802,0
1078,0.04312000000000005,4.99972120164681,0.004739584158527918,0.0026046278420525405,0
1079,0.04316000000000009,5.000378781950543,0.00506837398845672,0.0029368698472573857,0
1080,0.043199999999999905,5.000049991798719,0.005397163818512657,0.0032691158205216987,0
1081,0.043239999999999945,4.999392411494816,0.005725953648695714,0.0036013657308872965,0
1082,0.043279999999999985,5.000049991798719,0.0024380553525874815,0.00031693142097845555,0
1083,0.043320000000000025,5.000049991798719,0.004739584158527918,0.002621928088178925,0
1084,0.043360000000000065,4.99972120164681,0.003424424840084442,0.0013102404751013127,0
1085,0.043400000000000105,5.000049991798719,0.004082004499051814,0.001971295652587213,0
1086,0.04343999999999992,4.99972120164681,0.005397163818512657,0.003289934272768016,0
1087,0.04347999999999996,5.000378781950543,0.009342641789095676,0.007238895295323384,0
1088,0.04352,5.000049991798719,0.009342641789095676,0.007242382067601545,0
1089,0.04356000000000004,5.000049991798719,0.0024380553525874815,0.00034128609273344733,0
1090,0.04360000000000008,4.99972120164681,0.00506837398845672,0.0029750988486637936,0
1091,0.0436399999999999,5.000378781950543,0.005397163818512657,0.003307386426264186,0
1092,0.04367999999999994,5.000049991798719,0.003753214669504526,0.0016669386213497032,0
1093,0.04371999999999998,4.99972120164681,0.0024380553525874815,0.0003552842141451239,0
1094,0.04376000000000002,4.99972120164681,0.006712323140007484,0.004633060445970085,0
1095,0.04380000000000006,5.000378781950543,0.006383533309443135,0.004307782563581203,0
1096,0.0438400000000001,4.99972120164681,0.008685062126061585,0.006612826801228209,0
1097,0.04387999999999992,4.99972120164681,0.007041112970698912,0.004972396508834624,0
1098,0.04391999999999996,5.000049991798719,0.005397163818512657,0.0033319696306505255,0
1099,0.04396,4.99972120164681,0.003753214669504526,0.0016915461357755474,0
1100,0.04400000000000004,5.000378781950543,0.006383533309443135,0.004325393779081883,0
1101,0.04404000000000008,5.000378781950543,0.004082004499051814,0.002027397290402355,0
1102,0.0440799999999999,5.000378781950543,0.003424424840084442,0.001373353240606503,0
1103,0.04411999999999994,5.000049991798719,0.0030956350107915753,0.0010481022770669848,0
1104,0.04415999999999998,5.000049991798719,0.006383533309443135,0.004339542667182519,0
1105,0.04420000000000002,5.000378781950543,0.005725953648695714,0.0036855082927454742,0
1106,0.04424000000000006,4.99972120164681,0.006712323140007484,0.004675426234357027,0
1107,0.0442800000000001,4.99972120164681,0.007369902801517392,0.005336557479306633,0
1108,0.044319999999999915,5.000378781950543,0.004739584158527918,0.0027097935220550453,0
1109,0.044359999999999955,5.000049991798719,0.007369902801517392,0.005343669922246868,0
1110,0.044399999999999995,5.000378781950543,0.006383533309443135,0.004360861228014004,0
1111,0.044440000000000035,5.000049991798719,0.004410794328726292,0.0023916860549607244,0
1112,0.044480000000000075,5.000707572102282,0.005397163818512657,0.0033816223314247634,0
1113,0.044520000000000115,5.000049991798719,0.004739584158527918,0.0027276124063328163,0
1114,0.04455999999999993,5.000049991798719,0.004410794328726292,0.0024023952288494237,0
1115,0.04459999999999997,5.000378781950543,0.0021092655236763236,0.00010444196276303752,0
1116,0.04464000000000001,5.000378781950543,0.007041112970698912,0.005039867804624308,0
1117,0.04468000000000005,5.000049991798719,0.003753214669504526,0.001755550723383576,0
1118,0.04472000000000009,5.000049991798719,0.008027482463535476,0.006033402531733358,0
1119,0.04475999999999991,5.000378781950543,0.006383533309443135,0.004393040155585863,0
1120,0.04479999999999995,4.999392411494816,0.005397163818512657,0.003410260175497941,0
1121,0.04483999999999999,5.000378781950543,0.0014516858662357995,-0.0005316255637558175,0
1122,0.04488000000000003,5.000378781950543,0.008356272294735026,0.006376555749241261,0
1123,0.04492000000000007,5.000378781950543,0.005397163818512657,0.0034210447982973777,0
1124,0.04496000000000011,5.000049991798719,0.004739584158527918,0.0027670652736895116,0
1125,0.04499999999999993,5.000378781950543,0.003753214669504526,0.0017842984994712939,0
1126,0.04503999999999997,5.000049991798719,0.004739584158527918,0.002774273252070483,0
1127,0.04508000000000001,4.99972120164681,0.0014516858662357995,-0.0005100172585202154,0
1128,0.04512000000000005,4.99972120164681,0.004410794328726292,0.002452701473165236,0
1129,0.04516000000000009,4.99972120164681,0.004082004499051814,0.0021275243695603675,0
1130,0.04519999999999991,4.99972120164681,0.005397163818512657,0.003446298841360008,0
1131,0.04523999999999995,5.000049991798719,0.009013851957515154,0.007066604528378723,0
1132,0.04527999999999999,5.000049991798719,0.008027482463535476,0.006083854947514872,0
1133,0.04532000000000003,4.999392411494816,0.0030956350107915753,0.0011556297424228069,0
1134,0.04536000000000007,4.99972120164681,0.00506837398845672,0.0031319932717266694,0
1135,0.04540000000000011,5.000049991798719,0.003753214669504526,0.0018204607778656975,0
1136,0.045439999999999925,5.000378781950543,0.007369902801517392,0.005440777977902912,0
1137,0.045479999999999965,5.000049991798719,0.008027482463535476,0.006101988920374358,0
1138,0.045520000000000005,4.99972120164681,0.004082004499051814,0.002160144418284447,0
1139,0.045560000000000045,5.000049991798719,0.0024380553525874815,0.0005198308856813902,0
1140,0.045600000000000085,4.99972120164681,0.004410794328726292,0.0024962075966921612,0
1141,0.0456399999999999,5.000049991798719,0.004739584158527918,0.0028286372519358773,0
1142,0.04567999999999994,5.000049991798719,0.003424424840084442,0.001517119819080595,0
1143,0.04571999999999998,5.000049991798719,0.00506837398845672,0.003164712882779923,0
1144,0.04576000000000002,4.99972120164681,0.008027482463535476,0.0061274672725343815,0
1145,0.04580000000000006,5.000049991798719,0.008027482463535476,0.006131115156185829,0
1146,0.0458400000000001,5.000378781950543,0.006712323140007484,0.004819605654929649,0
1147,0.04587999999999992,5.000049991798719,0.005725953648695714,0.0038368878941724667,0
1148,0.04591999999999996,5.000378781950543,0.003424424840084442,0.001539012694079024,0
1149,0.04596,4.99972120164681,0.007369902801517392,0.00548814611169181,0
1150,0.04600000000000004,5.000049991798719,0.005397163818512657,0.0035190644022462655,0
1151,0.04604000000000008,5.000378781950543,0.004082004499051814,0.0022075641434601027,0
1152,0.0460799999999999,5.000378781950543,0.004739584158527918,0.0028688046204815728,0
1153,0.04611999999999994,5.000378781950543,0.009013851957515154,0.007146734963659368,0
1154,0.04615999999999998,4.99972120164681,0.007041112970698912,0.005177660217472948,0
1155,0.04620000000000002,4.99972120164681,0.004082004499051814,0.0022222176527087927,0
1156,0.04624000000000006,5.000378781950543,0.003424424840084442,0.0015683055367114002,0
1157,0.0462800000000001,5.000049991798719,0.006712323140007484,0.004859872985545691,0
1158,0.04631999999999992,5.000049991798719,0.004739584158527918,0.0028908047287934517,0
1159,0.04635999999999996,5.000378781950543,0.004410794328726292,0.0025656871694308397,0
1160,0.0464,4.999063621342738,0.0027668451816259126,0.0009254118083978395,0
1161,0.04644000000000004,4.99972120164681,0.003424424840084442,0.0015866667384901018,0
1162,0.04648000000000008,4.99972120164681,0.003753214669504526,0.0019191332950698411,0
1163,0.046519999999999895,5.000378781950543,0.006054743479005864,0.004224340257238138,0
1164,0.046559999999999935,5.000049991798719,0.008027482463535476,0.006200758789945467,0
1165,0.046599999999999975,4.99972120164681,0.0076986926324629085,0.005875649872587148,0
1166,0.046640000000000015,5.000049991798719,0.008027482463535476,0.00620812195295882,0
1167,0.046680000000000055,5.000049991798719,0.005397163818512657,0.0035814868628911024,0
1168,0.046720000000000095,5.000378781950543,0.004410794328726292,0.0025988022038100334,0
1169,0.04675999999999991,5.000049991798719,0.004739584158527918,0.0029312781101846646,0
1170,0.04679999999999995,5.000378781950543,0.0007941062093044515,-0.0010105125464570147,0
1171,0.04683999999999999,4.99972120164681,0.0007941062093044515,-0.001006824067701582,0
1172,0.04688000000000003,5.000049991798719,0.004082004499051814,0.002284763857163775,0
1173,0.04692000000000007,5.000378781950543,0.006054743479005864,0.0042611935988115905,0
1174,0.04696000000000011,5.000049991798719,0.0076986926324629085,0.005908834610775913,0
1175,0.04699999999999993,5.000378781950543,0.006383533309443135,0.004597368213339464,0
1176,0.04703999999999997,5.000378781950543,0.007369902801517392,0.005587431668360646,0
1177,0.04708000000000001,5.000378781950543,0.005725953648695714,0.003947177486162334,0
1178,0.04712000000000005,5.000049991798719,0.0024380553525874815,0.0006629751386922535,0
1179,0.04716000000000009,5.000049991798719,0.0027668451816259126,0.000995461864747709,0
1180,0.04719999999999991,5.000378781950543,0.0014516858662357995,-0.0003159996348564241,0
1181,0.04723999999999995,4.99972120164681,0.0014516858662357995,-0.000312300929885179,0
1182,0.04727999999999999,4.99972120164681,-0.0005210531030302584,-0.0022813403345519376,0
1183,0.04732000000000003,4.99972120164681,0.003424424840084442,0.0016678380032596179,0
1184,0.04736000000000007,5.000049991798719,0.003424424840084442,0.001671539198550505,0
1185,0.04740000000000011,5.000049991798719,0.001122896037706475,-0.0006262876374188693,0
1186,0.04743999999999993,4.99972120164681,0.0021092655236763236,0.00036378455662839396,0
1187,0.04747999999999997,4.99972120164681,0.004739584158527918,0.0029978066118050394,0
1188,0.04752000000000001,5.000378781950543,0.0030956350107915753,0.0013575615672481312,0
1189,0.04756000000000005,4.99972120164681,0.003753214669504526,0.0020188459826298065,0
1190,0.04760000000000009,4.99972120164681,0.005725953648695714,0.00399529034264233,0
1191,0.047639999999999905,5.000049991798719,0.003424424840084442,0.0016974675096969821,0
1192,0.047679999999999945,5.000378781950543,0.003753214669504526,0.00202996388034844,0
1193,0.047719999999999985,4.999392411494816,0.004410794328726292,0.0026912506171170307,0
1194,0.047760000000000025,5.000049991798719,0.0024380553525874815,0.0007222192256198723,0
1195,0.047800000000000065,4.99972120164681,0.003424424840084442,0.0017122967756622914,0
1196,0.047840000000000105,4.99972120164681,0.0014516858662357995,-0.0002567336868982378,0
1197,0.04787999999999992,4.99972120164681,0.00506837398845672,0.0033636633662223795,0
1198,0.04791999999999996,4.99972120164681,0.0027668451816259126,0.0010658438808021286,0
1199,0.04796,5.000049991798719,0.005725953648695714,0.004028662030723177,0
1200,0.04800000000000004,5.000049991798719,0.0030956350107915753,0.0014020534080716263,0
1201,0.04804000000000008,5.000707572102282,0.0004653163810297567,-0.0012245549030445765,0
1202,0.0480799999999999,5.000049991798719,0.0014516858662357995,-0.0002344748247769177,0
1203,0.04811999999999994,5.000378781950543,0.0030956350107915753,0.0014131851583109758,0
1204,0.04815999999999998,5.000049991798719,0.0030956350107915753,0.001416896213399856,0
1205,0.04820000000000002,5.000378781950543,0.0007941062093044515,-0.0008809213453233741,0
1206,0.04824000000000006,4.99972120164681,0.0027668451816259126,0.0010955290285874684,0
1207,0.0482800000000001,5.000049991798719,0.0007941062093044515,-0.0008734984121361784,0
1208,0.04831999999999992,5.000049991798719,0.004739584158527918,0.003075691169909167,0
1209,0.04835999999999996,5.000378781950543,0.0030956350107915753,0.0014354537274673474,0
1210,0.0484,4.99972120164681,0.0014516858662357995,-0.00020478366803952652,0
1211,0.04844000000000004,5.000707572102282,0.0007941062093044515,-0.0008586515608524573,0
1212,0.04848000000000008,4.99972120164681,0.004410794328726292,0.002761748309106084,0
1213,0.0485199999999999,4.999392411494816,0.00013652655288240445,-0.0015088077584001734,0
1214,0.04855999999999994,4.99972120164681,-0.00019226327513760522,-0.0018338859488649002,0
1215,0.04859999999999998,5.000707572102282,0.0030956350107915753,0.0014577238752882824,0
1216,0.04864000000000002,5.000049991798719,0.0007941062093044515,-0.0008400935158204813,0
1217,0.04868000000000006,5.000378781950543,0.0024380553525874815,0.0008075668815156854,0
1218,0.0487200000000001,5.000049991798719,0.0021092655236763236,0.00048248812188789425,0
1219,0.048759999999999915,5.000049991798719,0.0021092655236763236,0.00048619897799219533,0
1220,0.048799999999999955,4.99972120164681,0.003424424840084442,0.0018050689089517404,0
1221,0.048839999999999995,5.000049991798719,0.0021092655236763236,0.000493619937204085,0
1222,0.048880000000000035,4.99972120164681,0.0027668451816259126,0.0011549096416210193,0
1223,0.048920000000000075,5.000378781950543,0.003753214669504526,0.0021449888495078846,0
1224,0.048960000000000115,4.999392411494816,0.003753214669504526,0.002148698214827469,0
1225,0.04899999999999993,5.000049991798719,0.003753214669504526,0.002152407197265432,0
1226,0.04903999999999997,5.000378781950543,0.0021092655236763236,0.0005121666228374783,0
1227,0.04908000000000001,4.99972120164681,0.006054743479005864,0.004461352710410539,0
1228,0.04912000000000005,4.99972120164681,0.004082004499051814,0.002492321395461595,0
1229,0.04916000000000009,4.99972120164681,0.0027668451816259126,0.0011808692477582234,0
1230,0.04919999999999991,5.000378781950543,0.0024380553525874815,0.0008557860651533474,0
1231,0.04923999999999995,5.000378781950543,0.0027668451816259126,0.0011882819893679526,0
1232,0.04927999999999999,5.000378781950543,-0.0005210531030302584,-0.0020959107792996147,0
1233,0.04932000000000003,4.99972120164681,0.005397163818512657,0.0038260110511525746,0
1234,0.04936000000000007,5.000049991798719,-0.0008498429307955274,-0.0024172914241787405,0
1235,0.04940000000000011,5.000049991798719,0.0027668451816259126,0.0012031002994729485,0
1236,0.04943999999999993,4.99972120164681,0.0004653163810297567,-0.0010947255804146668,0
1237,0.04947999999999997,5.001036362253937,0.003424424840084442,0.0018680850810910757,0
1238,0.04952000000000001,5.000049991798719,-0.0005210531030302584,-0.002073691405526259,0
1239,0.04956000000000005,4.999392411494816,0.0014516858662357995,-9.725175337298143e-05,0
1240,0.04960000000000009,5.000049991798719,0.0007941062093044515,-0.0007511315286436921,0
1241,0.049639999999999906,5.000049991798719,0.004739584158527918,0.003198045473437608,0
1242,0.049679999999999946,5.000707572102282,0.00506837398845672,0.0035305334998856795,0
1243,0.049719999999999986,5.000049991798719,0.0030956350107915753,0.0015614918349061324,0
1244,0.049760000000000026,4.99972120164681,0.00013652655288240445,-0.0013939202216053286,0
1245,0.049800000000000066,4.99972120164681,0.0014516858662357995,-7.506544555523157e-05,0
1246,0.049840000000000106,5.000049991798719,0.001780475694892425,0.00025741887972529845,0
1247,0.049879999999999924,4.99972120164681,0.0014516858662357995,-6.767744571047312e-05,0
1248,0.049919999999999964,4.99972120164681,0.001122896037706475,-0.00039277479171049255,0
1249,0.049960000000000004,4.99972120164681,0.0024380553525874815,0.0009260759577617475,0
1250,0.050000000000000044,5.000049991798719,0.003424424840084442,0.001916135804707541,0
1251,0.050040000000000084,4.999392411494816,0.0007941062093044515,-0.0007104935689279349,0
1252,0.0500799999999999,4.99972120164681,0.00013652655288240445,-0.001364385097629094,0
1253,0.05011999999999994,5.001036362253937,-0.0015074225859438989,-0.0030046472652345943,0
1254,0.05015999999999998,4.999063621342738,0.00013652655288240445,-0.001357012338720977,0
1255,0.05020000000000002,5.000707572102282,-0.0008498429307955274,-0.002339697245235212,0
1256,0.05024000000000006,4.99972120164681,0.001780475694892425,0.00029430472014616813,0
1257,0.0502800000000001,4.997748460733576,0.0021092655236763236,0.0006267766242502753,0
1258,0.05031999999999992,5.002022732708393,0.00506837398845672,0.0035895658731186133,0
1259,0.05035999999999996,4.999063621342738,0.001122896037706475,-0.00035223261159087545,0
1260,0.0504,5.000707572102282,-0.00348016154833046,-0.004951612076404828,0
1261,0.05044000000000004,5.000378781950543,-0.00019226327513760522,-0.001660037053532803,0
1262,0.05048000000000008,5.000049991798719,-0.0015074225859438989,-0.0029715210128849904,0
1263,0.0505199999999999,4.999063621342738,0.001780475694892425,0.0003200511945440965,0
1264,0.05055999999999994,4.999063621342738,0.0007941062093044515,-0.0006626458159035225,0
1265,0.05059999999999998,5.000378781950543,0.001780475694892425,0.0003273946668267311,0
1266,0.05064000000000002,5.000378781950543,0.0004653163810297567,-0.0009840951543917662,0
1267,0.05068000000000006,5.001693942556992,0.00013652655288240445,-0.0013092170208472648,0
1268,0.0507200000000001,5.000049991798719,-0.0024937920677107622,-0.003935869237109056,0
1269,0.050759999999999916,5.000049991798719,-0.001178632758433426,-0.002617045107222739,0
1270,0.050799999999999956,4.99972120164681,-0.001178632758433426,-0.0026133818966515947,0
1271,0.050839999999999996,5.000049991798719,-0.001178632758433426,-0.002609720322387065,0
1272,0.050880000000000036,4.99972120164681,-0.00019226327513760522,-0.0016196909273552317,0
1273,0.050920000000000076,5.000049991798719,-0.0008498429307955274,-0.0022736123599804755,0
1274,0.050960000000000116,4.999063621342738,0.0030956350107915753,0.0016755220898084424,0
1275,0.050999999999999934,5.000378781950543,0.001122896037706475,-0.00029356211598572643,0
1276,0.051039999999999974,5.000049991798719,-0.0008498429307955274,-0.002262648084140015,0
1277,0.051080000000000014,5.000049991798719,0.0024380553525874815,0.0010289014066630683,0
1278,0.051120000000000054,4.99972120164681,-0.00019226327513760522,-0.0015977678325058743,0
1279,0.051160000000000094,5.000049991798719,-0.0005210531030302584,-0.001922910116594295,0
1280,0.05119999999999991,5.000049991798719,0.001122896037706475,-0.0002753153026446923,0
1281,0.05123999999999995,4.99972120164681,-0.003808951374948702,-0.005203518938469078,0
1282,0.05127999999999999,4.99972120164681,0.0004653163810297567,-0.0009256093277837106,0
1283,0.05132000000000003,4.999392411494816,0.001780475694892425,0.0003931898929693358,0
1284,0.05136000000000007,5.000049991798719,0.001122896037706475,-0.00026075183078609366,0
1285,0.05140000000000011,5.000049991798719,-0.0008498429307955274,-0.0022298548649112267,0
1286,0.05143999999999993,4.99972120164681,-0.0018362124133269458,-0.003212590437663484,0
1287,0.05147999999999997,5.000378781950543,0.0004653163810297567,-0.0009074297836194402,0
1288,0.05152000000000001,5.000049991798719,-0.00019226327513760522,-0.001561379655635241,0
1289,0.05156000000000005,5.000049991798719,-0.0015074225859438989,-0.002872911283219373,0
1290,0.05160000000000009,4.99972120164681,-0.0008498429307955274,-0.00221170607112131,0
1291,0.05163999999999991,4.99972120164681,-0.0018362124133269458,-0.003194452148267826,0
1292,0.05167999999999995,4.99972120164681,-0.0018362124133269458,-0.0031908309196890866,0
1293,0.05171999999999999,5.000049991798719,-0.0031513717215847087,-0.004502371201364501,0
1294,0.05176000000000003,4.999392411494816,-0.0005210531030302584,-0.0018684357833629896,0
1295,0.05180000000000007,5.000378781950543,-0.0018362124133269458,-0.003179980546435258,0
1296,0.05184000000000011,5.000049991798719,-0.0008498429307955274,-0.0021899987939376976,0
1297,0.051879999999999926,4.99972120164681,-0.00019226327513760522,-0.0015288091705556203,0
1298,0.051919999999999966,4.99972120164681,-0.0008498429307955274,-0.00218278118566297,0
1299,0.051960000000000006,5.000707572102282,0.0004653163810297567,-0.0008640165853399863,0
1300,0.052000000000000046,5.000378781950543,-0.001178632758433426,-0.0025043628131851225,0
1301,0.052040000000000086,4.99972120164681,0.00013652655288240445,-0.0011856029919049887,0
1302,0.052079999999999904,4.99972120164681,0.0021092655236763236,0.0007907340624782955,0
1303,0.052119999999999944,5.000049991798719,-0.003808951374948702,-0.005123887203600413,0
1304,0.052159999999999984,5.000049991798719,-0.0047953208540382625,-0.006106663525801557,0
1305,0.052200000000000024,5.000049991798719,-0.004466531027802631,-0.005774283042896784,0
1306,0.052240000000000064,5.000378781950543,-0.0024937920677107622,-0.0037979559508627683,0
1307,0.052280000000000104,4.99972120164681,-0.0015074225859438989,-0.00280800088633462,0
1308,0.05231999999999992,4.99972120164681,-0.00019226327513760522,-0.0014892585663477454,0
1309,0.05235999999999996,4.99972120164681,0.0021092655236763236,0.0008158506437204382,0
1310,0.0524,5.000049991798719,-0.0018362124133269458,-0.003126049504246114,0
1311,0.05244000000000004,5.000049991798719,-0.0031513717215847087,-0.004437633669921328,0
1312,0.05248000000000008,4.999392411494816,-0.0018362124133269458,-0.00311890188971703,0
1313,0.0525199999999999,4.999392411494816,-0.002165002240582567,-0.0034441219397890045,0
1314,0.05255999999999994,4.99972120164681,-0.0005210531030302584,-0.0017966057438876736,0
1315,0.05259999999999998,4.99972120164681,-0.004466531027802631,-0.005738519353162043,0
1316,0.05264000000000002,4.99972120164681,-0.0031513717215847087,-0.004419798498258029,0
1317,0.05268000000000006,5.000378781950543,-0.0015074225859438989,-0.002772290604648223,0
1318,0.0527200000000001,4.99972120164681,-0.0018362124133269458,-0.003097524488628674,0
1319,0.05275999999999992,5.000049991798719,-0.004137741201439435,-0.005395500171698206,0
1320,0.05279999999999996,4.999392411494816,-0.006110480157705198,-0.007364688885017642,0
1321,0.05284,5.000378781950543,-0.002165002240582567,-0.003415663610725884,0
1322,0.05288000000000004,4.999392411494816,-0.001178632758433426,-0.0024257496808087536,0
1323,0.05292000000000008,5.000049991798719,-0.0015074225859438989,-0.002750997993519529,0
1324,0.052959999999999896,5.000049991798719,-0.0008498429307955274,-0.002089879780049934,0
1325,0.052999999999999936,5.000049991798719,-0.002165002240582567,-0.003401503511447245,0
1326,0.053039999999999976,5.000378781950543,-0.0031513717215847087,-0.004384340417386841,0
1327,0.053080000000000016,5.000378781950543,-0.004137741201439435,-0.005367180348844376,0
1328,0.053120000000000056,5.000049991798719,-0.0031513717215847087,-0.004377284370538286,0
1329,0.053160000000000096,5.000049991798719,-0.0031513717215847087,-0.004373760945255328,0
1330,0.053199999999999914,4.999392411494816,-0.002165002240582567,-0.003383871135303152,0
1331,0.053239999999999954,4.99972120164681,0.0004653163810297567,-0.0007500353041799935,0
1332,0.053279999999999994,5.000049991798719,0.0004653163810297567,-0.000746521237156215,0
1333,0.053320000000000034,5.000049991798719,-0.004137741201439435,-0.005346067918077951,0
1334,0.053360000000000074,4.99972120164681,-0.0005210531030302584,-0.0017258721065281427,0
1335,0.053400000000000114,4.99972120164681,0.0004653163810297567,-0.0007359981206058607,0
1336,0.05343999999999993,4.99972120164681,-0.0031513717215847087,-0.004349184955448852,0
1337,0.05347999999999997,5.000378781950543,-0.0005210531030302584,-0.001715368325966865,0
1338,0.05352000000000001,4.99972120164681,-0.008412008934208556,-0.009602829425755225,0
1339,0.05356000000000005,5.000049991798719,-0.0031513717215847087,-0.004338700783913083,0
1340,0.05360000000000009,4.99972120164681,-0.003808951374948702,-0.004992792332804615,0
1341,0.05363999999999991,5.000049991798719,0.00013652655288240445,-0.001043829647761106,0
1342,0.05367999999999995,5.000378781950543,-0.0005210531030302584,-0.0016979279161754746,0
1343,0.05371999999999999,4.99972120164681,-0.0015074225859438989,-0.0026808194036986527,0
1344,0.05376000000000003,4.99972120164681,-0.0018362124133269458,-0.003006134650132282,0
1345,0.05380000000000007,4.99972120164681,-0.003808951374948702,-0.004975402467518191,0
1346,0.05384000000000011,5.000049991798719,-0.003808951374948702,-0.0049719347822075885,0
1347,0.05387999999999993,5.000049991798719,-0.00348016154833046,-0.004639680751354628,0
1348,0.05391999999999997,4.99972120164681,-0.0018362124133269458,-0.0029922709152817206,0
1349,0.05396000000000001,4.999392411494816,-0.0031513717215847087,-0.004303973047663482,0
1350,0.05400000000000005,4.99972120164681,-0.0015074225859438989,-0.0026565702833065983,0
1351,0.05404000000000009,5.000049991798719,-0.0018362124133269458,-0.00298191005103832,0
1352,0.054079999999999906,5.000049991798719,-0.001178632758433426,-0.0023208839274011794,0
1353,0.054119999999999946,5.000049991798719,-0.00348016154833046,-0.0046189698612432144,0
1354,0.054159999999999986,4.99972120164681,-0.005124110680146385,-0.006259479771411486,0
1355,0.054200000000000026,5.000049991798719,-0.0018362124133269458,-0.0029681459390080893,0
1356,0.054240000000000066,5.000049991798719,-0.0018362124133269458,-0.002964714051081636,0
1357,0.054280000000000106,4.99972120164681,-0.0031513717215847087,-0.004276445170601573,0
1358,0.054319999999999924,4.99972120164681,-0.001178632758433426,-0.0023002817393693573,0
1359,0.054359999999999964,5.000378781950543,-0.003808951374948702,-0.004927179629865832,0
1360,0.054400000000000004,5.000378781950543,-0.0024937920677107622,-0.0036086033600132876,0
1361,0.054440000000000044,5.000049991798719,-0.0028225818947114484,-0.003933980009082281,0
