,seconds,Trig,EMG_amplitude,EMG_amplitude_filter,peaks
0,0.0,5.000707572102282,0.0021092655236763236,-0.0003496443800360113,0
1,4.0000000000040004e-05,5.000378781950543,0.001122896037706475,0.0006351792797858653,0
2,8.000000000008001e-05,5.000378781950543,0.0014516858662357995,0.0003048401062687642,0
3,0.00011999999999989797,5.000707572102282,0.001780475694892425,-2.5502587786027046e-05,0
4,0.00015999999999993797,5.000049991798719,0.001780475694892425,-2.7058975151064062e-05,0
5,0.00019999999999997797,5.000049991798719,0.001780475694892425,-2.861888602531139e-05,0
6,0.00024000000000001798,5.000707572102282,0.0014516858662357995,0.00029860750671969474,0
7,0.000280000000000058,5.000378781950543,0.0024380553525874815,-0.0006893289420949254,0
8,0.000320000000000098,5.000378781950543,0.0014516858662357995,0.00029547005374279834,0
9,0.00035999999999991594,5.000378781950543,0.0014516858662357995,0.0002938960336924106,0
10,0.00039999999999995595,5.000707572102282,0.0014516858662357995,0.0002923184826345048,0
11,0.00043999999999999595,5.001036362253937,0.001122896037706475,0.000619527227641676,0
12,0.00048000000000003595,5.000049991798719,0.0021092655236763236,-0.0003684268757569077,0
13,0.000520000000000076,4.99972120164681,0.001780475694892425,-4.122519973623416e-05,0
14,0.0005599999999998939,5.000049991798719,0.0014516858662357995,0.0002859729394092341,0
15,0.0005999999999999339,5.000378781950543,0.001780475694892425,-4.44121169054214e-05,0
16,0.0006399999999999739,5.000378781950543,0.0024380553525874815,-0.0007035905417897884,0
17,0.0006800000000000139,5.000049991798719,0.0007941062093044515,0.0009387562934028153,0
18,0.0007200000000000539,5.000707572102282,0.0021092655236763236,-0.00037800887131582346,0
19,0.0007600000000000939,5.000707572102282,0.0007941062093044515,0.0009355410491123524,0
20,0.0007999999999999119,5.000049991798719,0.001780475694892425,-5.244137534215202e-05,0
21,0.0008399999999999519,5.000049991798719,0.0014516858662357995,0.00027473196821390755,0
22,0.0008799999999999919,5.000049991798719,0.0014516858662357995,0.00027311193558285753,0
23,0.0009200000000000319,5.001036362253937,0.001122896037706475,0.0006002781826689765,0
24,0.0009600000000000719,5.000049991798719,0.001122896037706475,0.0005986510511467614,0
25,0.001000000000000112,5.000049991798719,0.001122896037706475,0.0005970203682935316,0
26,0.0010399999999999299,5.001036362253937,0.0014516858662357995,0.0002665963043428434,0
27,0.0010799999999999699,5.000378781950543,0.0014516858662357995,0.0002649585151311464,0
28,0.0011200000000000099,5.000378781950543,0.001780475694892425,-6.547265773475158e-05,0
29,0.0011600000000000499,5.000049991798719,0.0024380553525874815,-0.000724697215828908,0
30,0.0012000000000000899,5.000707572102282,0.0021092655236763236,-0.00039755584468390085,0
31,0.0012399999999999078,5.000378781950543,0.0021092655236763236,-0.0003992078609792649,0
32,0.0012799999999999478,5.000049991798719,0.001122896037706475,0.000585506049018937,0
33,0.0013199999999999878,5.000049991798719,0.0007941062093044515,0.0009126367406410904,0
34,0.0013600000000000279,5.000378781950543,0.0014516858662357995,0.0002533943850048688,0
35,0.0014000000000000679,5.000049991798719,0.0004653163810297567,0.0012380976084794503,0
36,0.0014400000000001079,5.000378781950543,0.001122896037706475,0.0005788481259583354,0
37,0.0014799999999999258,5.000378781950543,0.001780475694892425,-8.040492225602826e-05,0
38,0.0015199999999999658,5.000049991798719,0.001122896037706475,0.0005754977776617125,0
39,0.0015600000000000058,5.001036362253937,0.001780475694892425,-8.376240407267902e-05,0
40,0.0016000000000000458,5.000378781950543,0.0014516858662357995,0.00024334333173020334,0
41,0.0016400000000000858,5.000707572102282,0.001122896037706475,0.0005704454980908263,0
42,0.0016799999999999038,5.000378781950543,0.0007941062093044515,0.0008975440940149767,0
43,0.0017199999999999438,5.000049991798719,0.0007941062093044515,0.000895849290249199,0
44,0.0017599999999999838,5.000378781950543,0.0004653163810297567,0.0012229407425069939,0
45,0.0018000000000000238,5.000707572102282,0.001780475694892425,-9.39205205713633e-05,0
46,0.0018400000000000638,4.99972120164681,0.001122896037706475,0.0005619536132680231,0
47,0.0018800000000001038,5.000707572102282,0.0014516858662357995,0.00023145468634480073,0
48,0.0019199999999999218,4.99972120164681,0.001780475694892425,-9.904781665386621e-05,0
49,0.0019599999999999618,5.000049991798719,0.0004653163810297567,0.0012143952460334953,0
50,0.0020000000000000018,5.000378781950543,0.0014516858662357995,0.00022630593194948725,0
51,0.0020400000000000418,5.000378781950543,0.001122896037706475,0.0005533723530445494,0
52,0.002080000000000082,4.99972120164681,0.00013652655288240445,0.0015380148510402189,0
53,0.0021199999999998997,5.000049991798719,0.0014516858662357995,0.00022112497064227072,0
54,0.0021599999999999397,5.002022732708393,0.0014516858662357995,0.00021939082257540956,0
55,0.0021999999999999797,5.000378781950543,0.0024380553525874815,-0.0007687163936556991,0
56,0.0022400000000000198,5.001036362253937,0.0021092655236763236,-0.00044166787721086175,0
57,0.0022800000000000598,5.000378781950543,0.003424424840084442,-0.0017585720894305532,0
58,0.0023200000000000998,5.000049991798719,0.0004653163810297567,0.0011987878897249404,0
59,0.0023599999999999177,5.001365152405508,0.003753214669504526,-0.0020908624634629596,0
60,0.0023999999999999577,5.000049991798719,-0.0005210531030302584,0.0021816496588344856,0
61,0.0024399999999999977,5.000378781950543,0.001780475694892425,-0.00012163837554388672,0
62,0.0024800000000000377,5.001036362253937,-0.0008498429307955274,0.002506917426792009,0
63,0.0025200000000000777,5.000707572102282,0.0014516858662357995,0.00020362221885042827,0
64,0.0025599999999998957,5.000049991798719,-0.001178632758433426,0.0028321708444055647,0
65,0.0025999999999999357,4.99972120164681,0.001122896037706475,0.000528868460318352,0
66,0.0026399999999999757,4.99972120164681,0.0024380553525874815,-0.0007880680319563119,0
67,0.0026800000000000157,4.999392411494816,0.0014516858662357995,0.0001965206869585559,0
68,0.0027200000000000557,5.000049991798719,-0.00019226327513760522,0.001838685470271526,0
69,0.0027600000000000957,5.000707572102282,0.0007941062093044515,0.0008505280365813285,0
70,0.0027999999999999137,5.000049991798719,0.0024380553525874815,-0.0007952126476852228,0
71,0.0028399999999999537,5.000378781950543,0.001122896037706475,0.0005181515339456569,0
72,0.0028799999999999937,5.000378781950543,0.0027668451816259126,-0.001127596336005246,0
73,0.0029200000000000337,5.000378781950543,0.0014516858662357995,0.0001857606600738442,0
74,0.0029600000000000737,5.000378781950543,0.0027668451816259126,-0.001131204568388507,0
75,0.0029999999999998916,4.999392411494816,0.0021092655236763236,-0.00047543441773744983,0
76,0.0030399999999999316,4.99972120164681,0.001780475694892425,-0.00014845769092683084,0
77,0.0030799999999999716,5.000378781950543,0.0014516858662357995,0.00017851544064996023,0
78,0.0031200000000000117,5.000049991798719,0.0027668451816259126,-0.0011384641673416636,0
79,0.0031600000000000517,5.000049991798719,0.001122896037706475,0.0005036610880561772,0
80,0.0032000000000000917,5.000049991798719,0.001122896037706475,0.0005018336032328439,0
81,0.0032399999999999096,5.000049991798719,0.0024380553525874815,-0.0008151567931381015,0
82,0.0032799999999999496,5.000378781950543,0.0021092655236763236,-0.0004882016427315422,0
83,0.0033199999999999896,5.000049991798719,0.001780475694892425,-0.0001612500897981028,0
84,0.0033600000000000296,4.99972120164681,0.001780475694892425,-0.000163091963308741,0
85,0.0034000000000000696,5.000378781950543,0.0021092655236763236,-0.0004937272635608595,0
86,0.0034400000000001096,5.000049991798719,0.0027668451816259126,-0.0011531559912167037,0
87,0.0034799999999999276,5.000707572102282,0.0007941062093044515,0.0008177303128969948,0
88,0.0035199999999999676,5.000378781950543,0.001122896037706475,0.00048708421753925087,0
89,0.0035600000000000076,5.000049991798719,0.001780475694892425,-0.0001723553055797823,0
90,0.0036000000000000476,5.000049991798719,0.0024380553525874815,-0.0008317984283976092,0
91,0.0036400000000000876,5.000049991798719,0.001780475694892425,-0.00017608583521021705,0
92,0.0036799999999999056,4.99972120164681,0.0021092655236763236,-0.0005067463280647316,0
93,0.0037199999999999456,5.000378781950543,0.0021092655236763236,-0.0005086205918591727,0
94,0.0037599999999999856,5.000378781950543,0.0021092655236763236,-0.0005104984555210944,0
95,0.0038000000000000256,5.000049991798719,0.0014516858662357995,0.00014519973826362172,0
96,0.0038400000000000656,5.000049991798719,0.0030956350107915753,-0.0015006344700509659,0
97,0.0038800000000001056,5.000378781950543,0.001780475694892425,-0.00018736381810543817,0
98,0.0039199999999999235,5.000378781950543,0.0024380553525874815,-0.0008468357400233755,0
99,0.0039599999999999635,5.000378781950543,0.0021092655236763236,-0.0005199417756614217,0
100,0.0040000000000000036,5.000707572102282,0.0021092655236763236,-0.0005218412405765941,0
101,0.0040400000000000436,5.000049991798719,0.0021092655236763236,-0.000523744305879928,0
102,0.0040800000000000836,5.000049991798719,0.001780475694892425,-0.0001968611427922333,0
103,0.0041199999999999015,5.000049991798719,0.001780475694892425,-0.00019877140886849785,0
104,0.0041599999999999415,4.99972120164681,0.0021092655236763236,-0.000529475104078363,0
105,0.0041999999999999815,5.000707572102282,0.0014516858662357995,0.0001261870866344329,0
106,0.0042400000000000215,5.000049991798719,0.0007941062093044515,0.0007818456766018479,0
107,0.0042800000000000615,5.000049991798719,0.0014516858662357995,0.0001223413525535683,0
108,0.0043200000000001015,5.000049991798719,0.0007941062093044515,0.0007779927423158731,0
109,0.0043599999999999195,5.000049991798719,0.0024380553525874815,-0.000867888268069705,0
110,0.0043999999999999595,5.000049991798719,0.0021092655236763236,-0.0005410339060582484,0
111,0.0044399999999999995,5.000378781950543,0.0024380553525874815,-0.0008717628015121224,0
112,0.0044800000000000395,5.000378781950543,0.0021092655236763236,-0.000544915638614744,0
113,0.0045200000000000795,5.000707572102282,0.0021092655236763236,-0.0005468619039097871,0
114,0.0045599999999998975,5.001036362253937,0.0007941062093044515,0.0007663475460934565,0
115,0.0045999999999999375,4.99972120164681,0.0021092655236763236,-0.0005507652314950357,0
116,0.0046399999999999775,4.999392411494816,0.0024380553525874815,-0.0008815121222272738,0
117,0.0046800000000000175,4.99972120164681,0.0014516858662357995,0.00010289670396037908,0
118,0.0047200000000000575,4.99972120164681,0.001780475694892425,-0.00022785738292370138,0
119,0.0047600000000000975,5.000378781950543,0.0004653163810297567,0.0010853340749456483,0
120,0.0047999999999999154,5.000049991798719,0.001780475694892425,-0.00023179669236055776,0
121,0.0048399999999999554,4.99972120164681,0.0014516858662357995,9.501808573605399e-05,0
122,0.0048799999999999955,5.000378781950543,0.001122896037706475,0.0004218292669407799,0
123,0.0049200000000000355,4.99972120164681,0.0021092655236763236,-0.0005665224627481876,0
124,0.0049600000000000755,5.000378781950543,0.001122896037706475,0.00041786118349628897,0
125,0.004999999999999893,5.001036362253937,0.0014516858662357995,8.708191964184949e-05,0
126,0.005039999999999933,5.000049991798719,0.0024380553525874815,-0.0009012805972099142,0
127,0.005079999999999973,5.000378781950543,0.0021092655236763236,-0.0005744873935307274,0
128,0.005120000000000013,5.000378781950543,0.0027668451816259126,-0.001234067270982763,0
129,0.005160000000000053,4.999392411494816,0.001780475694892425,-0.000249701597542423,0
130,0.0052000000000000934,4.99972120164681,0.0007941062093044515,0.0007346604814598737,0
131,0.005239999999999911,5.000049991798719,0.0014516858662357995,7.50698251669194e-05,0
132,0.005279999999999951,5.000049991798719,0.001780475694892425,-0.0002557345950921866,0
133,0.005319999999999991,5.000049991798719,0.0007941062093044515,0.0007286167072059777,0
134,0.005360000000000031,5.000378781950543,0.0014516858662357995,6.901527586956405e-05,0
135,0.005400000000000071,4.99972120164681,0.001122896037706475,0.0003957797394691866,0
136,0.005440000000000111,5.000049991798719,0.0021092655236763236,-0.0005926187013457912,0
137,0.005479999999999929,4.99972120164681,0.0024380553525874815,-0.0009234410743896803,0
138,0.005519999999999969,5.000049991798719,0.001780475694892425,-0.0002678975494684785,0
139,0.005560000000000009,5.000049991798719,0.0024380553525874815,-0.0009275169279133536,0
140,0.005600000000000049,5.000049991798719,0.0024380553525874815,-0.0009295602359552659,0
141,0.005640000000000089,5.000378781950543,0.0014516858662357995,5.47623557650237e-05,0
142,0.005679999999999907,5.000049991798719,0.0021092655236763236,-0.0006048677821749827,0
143,0.005719999999999947,5.000049991798719,0.0007941062093044515,0.0007082374665695121,0
144,0.005759999999999987,5.000049991798719,0.0021092655236763236,-0.0006089794977985921,0
145,0.005800000000000027,5.000378781950543,0.0021092655236763236,-0.0006110407313857748,0
146,0.005840000000000067,5.000049991798719,0.0014516858662357995,4.447410967342523e-05,0
147,0.005880000000000107,5.000049991798719,0.0021092655236763236,-0.0006151739461268204,0
148,0.005919999999999925,5.000049991798719,0.0014516858662357995,4.0333731810290164e-05,0
149,0.005959999999999965,5.000378781950543,0.0014516858662357995,3.8258172016890124e-05,0
150,0.006000000000000005,5.000378781950543,0.001780475694892425,-0.000292610795850392,0
151,0.006040000000000045,5.000049991798719,0.0014516858662357995,3.4096315070106e-05,0
152,0.006080000000000085,5.001036362253937,0.0014516858662357995,3.201001971938594e-05,0
153,0.006119999999999903,5.000049991798719,0.0027668451816259126,-0.0012852391677060427,0
154,0.006159999999999943,4.99972120164681,0.0014516858662357995,2.7826699913305726e-05,0
155,0.006199999999999983,4.99972120164681,0.0024380553525874815,-0.0009606398089762553,0
156,0.006240000000000023,5.000707572102282,0.001122896037706475,0.00035241890958730127,0
157,0.006280000000000063,4.99972120164681,0.001122896037706475,0.0003503147404970733,0
158,0.006320000000000103,5.000049991798719,0.001780475694892425,-0.00030937265752581904,0
159,0.006359999999999921,5.000049991798719,0.0014516858662357995,1.7305859592515506e-05,0
160,0.006399999999999961,5.000378781950543,0.001122896037706475,0.0003439808069469058,0
161,0.006440000000000001,5.000378781950543,0.001780475694892425,-0.00031571729996654886,0
162,0.006480000000000041,4.999392411494816,0.001780475694892425,-0.0003178393171431534,0
163,0.006520000000000081,4.999392411494816,0.001780475694892425,-0.00031996490064595365,0
164,0.006559999999999899,4.99972120164681,0.0021092655236763236,-0.0006508838781164815,0
165,0.006599999999999939,4.99972120164681,0.001780475694892425,-0.0003242267620411792,0
166,0.006639999999999979,5.000378781950543,0.0014516858662357995,2.4267910662716043e-06,0
167,0.006680000000000019,4.99972120164681,0.0014516858662357995,2.8695387746754974e-07,0
168,0.006720000000000059,5.000049991798719,0.0004653163810297567,0.000984513041475615,0
169,0.006760000000000099,5.000049991798719,0.0014516858662357995,-4.003400517251291e-06,0
170,0.006799999999999917,5.000049991798719,0.001780475694892425,-0.0003349437438798148,0
171,0.006839999999999957,5.000378781950543,0.0014516858662357995,-8.307986568741564e-06,0
172,0.006879999999999997,5.000707572102282,0.0021092655236763236,-0.0006680452706952114,0
173,0.006920000000000037,5.000378781950543,0.0021092655236763236,-0.0006702064514025852,0
174,0.006960000000000077,4.99972120164681,0.0024380553525874815,-0.001001161013703798,0
175,0.006999999999999895,5.000378781950543,0.0014516858662357995,-1.6959812066296055e-05,0
176,0.007039999999999935,4.99972120164681,0.0007941062093044515,0.000638448010205144,0
177,0.007079999999999975,5.000378781950543,0.001780475694892425,-0.00035009685859020305,0
178,0.007120000000000015,5.000049991798719,0.001780475694892425,-0.0003522757889268878,0
179,0.007160000000000055,5.000049991798719,0.0014516858662357995,-2.56684362981739e-05,0
180,0.007200000000000095,5.000378781950543,0.0024380553525874815,-0.0010142239429109501,0
181,0.007239999999999913,4.999392411494816,0.0021092655236763236,-0.0006876236770160389,0
182,0.007279999999999953,5.000049991798719,0.0021092655236763236,-0.0006898167812893833,0
183,0.007319999999999993,4.99972120164681,0.0021092655236763236,-0.0006920134253017201,0
184,0.007360000000000033,5.000049991798719,0.0014516858662357995,-3.6633950074337155e-05,0
185,0.007400000000000073,5.000378781950543,0.001780475694892425,-0.00036762749758660694,0
186,0.007440000000000113,5.000049991798719,0.0014516858662357995,-4.104492284969085e-05,0
187,0.007479999999999931,5.000049991798719,0.001122896037706475,0.0002855341182944698,0
188,0.007519999999999971,5.000049991798719,0.0021092655236763236,-0.0007030496869071874,0
189,0.007560000000000011,4.99972120164681,0.001122896037706475,0.00028110194962324475,0
190,0.007600000000000051,5.000378781950543,0.001780475694892425,-0.00037869908555042777,0
191,0.007640000000000091,4.99972120164681,0.0007941062093044515,0.0006054454951811038,0
192,0.007679999999999909,4.99972120164681,0.0014516858662357995,-5.436259177549164e-05,0
193,0.007719999999999949,5.000378781950543,0.0024380553525874815,-0.0010429640316009653,0
194,0.007759999999999989,5.000049991798719,0.0024380553525874815,-0.0010451995067826594,0
195,0.007800000000000029,5.000378781950543,0.001780475694892425,-0.0003898588442161462,0
196,0.00784000000000007,4.99972120164681,0.0024380553525874815,-0.0010496810152051015,0
197,0.00788000000000011,5.000049991798719,0.001780475694892425,-0.00039434738716733614,0
198,0.007919999999999927,5.000378781950543,0.0024380553525874815,-0.0010541765890606106,0
199,0.007959999999999967,5.000049991798719,0.001780475694892425,-0.0003988499882617046,0
200,0.008000000000000007,4.99972120164681,0.001780475694892425,-0.0004011065559922321,0
201,0.008040000000000047,5.000049991798719,0.001780475694892425,-0.00040336663267299424,0
202,0.008080000000000087,5.000378781950543,0.0014516858662357995,-7.684038774260823e-05,0
203,0.008119999999999905,5.000378781950543,0.0004653163810297567,0.0009072620086171203,0
204,0.008159999999999945,5.000049991798719,0.001122896037706475,0.0002474117599200906,0
205,0.008199999999999985,5.000378781950543,0.00013652655288240445,0.0012315071515166314,0
206,0.008240000000000025,5.000378781950543,0.0007941062093044515,0.0005716499026473524,0
207,0.008280000000000065,5.000378781950543,0.001122896037706475,0.00024057898458667166,0
208,0.008320000000000105,4.99972120164681,0.00013652655288240445,0.0012246638845697304,0
209,0.008359999999999923,5.000707572102282,0.0021092655236763236,-0.0007503631641976588,0
210,0.008399999999999963,5.000378781950543,0.001780475694892425,-0.0004238649044489473,0
211,0.008440000000000003,5.000707572102282,0.0014516858662357995,-9.737013379760162e-05,0
212,0.008480000000000043,5.000378781950543,0.001780475694892425,-0.00042845850731706666,0
213,0.008520000000000083,5.000049991798719,0.0014516858662357995,-0.00010197070824737501,0
214,0.008559999999999901,5.000378781950543,0.0014516858662357995,-0.00010427622040396993,0
215,0.008599999999999941,4.99972120164681,0.0007941062093044515,0.0005509944439765455,0
216,0.008639999999999981,5.000049991798719,0.0004653163810297567,0.0008774718015026167,0
217,0.008680000000000021,5.000049991798719,0.0014516858662357995,-0.00011121363043234418,0
218,0.008720000000000061,5.000049991798719,0.001780475694892425,-0.0004423228795596095,0
219,0.008760000000000101,4.99972120164681,0.001122896037706475,0.0002129338856736591,0
220,0.008799999999999919,5.000049991798719,0.0021092655236763236,-0.0007757619614500938,0
221,0.008839999999999959,5.000049991798719,0.0014516858662357995,-0.00012051213206272176,0
222,0.008879999999999999,5.000049991798719,0.0007941062093044515,0.0005347342322393975,0
223,0.008920000000000039,5.000049991798719,0.0014516858662357995,-0.00012518217955286639,0
224,0.008960000000000079,4.99972120164681,0.0007941062093044515,0.0005300572626515133,0
225,0.008999999999999897,5.000049991798719,0.0007941062093044515,0.0005277135904454039,0
226,0.009039999999999937,5.000378781950543,0.001122896037706475,0.00019657663476634345,0
227,0.009079999999999977,5.000378781950543,0.00013652655288240445,0.0011805955396719935,0
228,0.009120000000000017,5.000378781950543,0.0007941062093044515,0.0005206618531410468,0
229,0.009160000000000057,5.000049991798719,0.0007941062093044515,0.0005183043753139551,0
230,0.009200000000000097,5.000378781950543,-0.0005210531030302584,0.001831102764597083,0
231,0.009239999999999915,5.000378781950543,0.0004653163810297567,0.0008423689147761371,0
232,0.009279999999999955,5.000378781950543,0.0004653163810297567,0.000840001108842459,0
233,0.009319999999999995,5.000378781950543,0.0004653163810297567,0.0008376298652941247,0
234,0.009360000000000035,5.000049991798719,0.0014516858662357995,-0.0001511142984952997,0
235,0.009400000000000075,5.000378781950543,0.0007941062093044515,0.0005040872474187702,0
236,0.009439999999999893,4.99972120164681,0.001780475694892425,-0.0004846637789976543,0
237,0.009479999999999933,5.000378781950543,0.0007941062093044515,0.0004993207385950093,0
238,0.009519999999999973,4.99972120164681,0.0004653163810297567,0.0008257221743734762,0
239,0.009560000000000013,4.999392411494816,0.0004653163810297567,0.000823330360063915,0
240,0.009600000000000053,5.000049991798719,0.001780475694892425,-0.0004942241872123879,0
241,0.009640000000000093,5.000049991798719,0.0007941062093044515,0.0004897466485888327,0
242,0.009679999999999911,5.000049991798719,0.00013652655288240445,0.0011449242416036963,0
243,0.009719999999999951,5.000378781950543,0.0007941062093044515,0.0004849391109284734,0
244,0.009759999999999991,4.99972120164681,0.0007941062093044515,0.0004825302286255199,0
245,0.009800000000000031,4.99972120164681,0.0007941062093044515,0.00048011794109081266,0
246,0.009840000000000071,5.000049991798719,-0.00019226327513760522,0.0014640717356062649,0
247,0.009880000000000111,5.000049991798719,0.0007941062093044515,0.00047528316170742475,0
248,0.009919999999999929,4.99972120164681,0.0007941062093044515,0.00047286067560406344,0
249,0.009959999999999969,5.000378781950543,0.00013652655288240445,0.0011280144521816872,0
250,0.010000000000000009,5.000049991798719,0.0004653163810297567,0.0007967953533763059,0
251,0.010040000000000049,5.000049991798719,0.0014516858662357995,-0.00019200679035195147,0
252,0.010080000000000089,4.99972120164681,0.0014516858662357995,-0.00019444283376694087,0
253,0.010119999999999907,5.000378781950543,0.001122896037706475,0.00013190756944804976,0
254,0.010159999999999947,5.000049991798719,0.0007941062093044515,0.00045825459365186866,0
255,0.010199999999999987,5.000378781950543,0.00013652655288240445,0.0011133880700293826,0
256,0.010240000000000027,5.000049991798719,0.0004653163810297567,0.000782148689050804,0
257,0.010280000000000067,4.99972120164681,0.0004653163810297567,0.000779695766514635,0
258,0.010320000000000107,5.000049991798719,0.001122896037706475,0.0001196598207006986,0
259,0.010359999999999925,5.000378781950543,0.001780475694892425,-0.0005403794890974605,0
260,0.010399999999999965,4.999392411494816,-0.0005210531030302584,0.0017586862958862699,0
261,0.010440000000000005,5.000707572102282,0.00013652655288240445,0.0010986402698783817,0
262,0.010480000000000045,4.99972120164681,0.00013652655288240445,0.0010961705458195886,0
263,0.010520000000000085,5.001036362253937,-0.0008498429307955274,0.0020800669546901305,0
264,0.010559999999999903,4.99972120164681,0.001780475694892425,-0.0005527280933165438,0
265,0.010599999999999943,5.000378781950543,-0.0015074225859438989,0.0027326904209492957,0
266,0.010639999999999983,4.999392411494816,0.0021092655236763236,-0.0008864807962112419,0
267,0.010680000000000023,4.998734831190575,0.00013652655288240445,0.0010837717293768186,0
268,0.010720000000000063,5.000378781950543,0.0024380553525874815,-0.0012202468498729566,0
269,0.010760000000000103,5.000707572102282,0.00013652655288240445,0.0010787888392977017,0
270,0.01079999999999992,4.99972120164681,0.0027668451816259126,-0.0015540262275983657,0
271,0.01083999999999996,5.000049991798719,-0.0018362124133269458,0.0030465316049778372,0
272,0.01088,5.003009103162085,-0.0031513717215847087,0.004359187830051409,0
273,0.01092000000000004,4.999063621342738,0.00013652655288240445,0.001068783155031648,0
274,0.01096000000000008,5.002351522859708,-0.0018362124133269458,0.0030390124067815076,0
275,0.010999999999999899,4.999392411494816,-0.00348016154833046,0.004680448516902887,0
276,0.011039999999999939,4.999063621342738,-0.001178632758433426,0.002376403395207875,0
277,0.011079999999999979,5.000707572102282,0.00013652655288240445,0.0010587244487076327,0
278,0.011120000000000019,5.000378781950543,0.001122896037706475,6.983202886476944e-05,0
279,0.011160000000000059,5.000378781950543,0.0004653163810297567,0.0007248854542630295,0
280,0.011200000000000099,5.000049991798719,0.0004653163810297567,0.00072235593032231,0
281,0.011239999999999917,4.99972120164681,0.0007941062093044515,0.00039103328906474804,0
282,0.011279999999999957,5.000378781950543,0.001122896037706475,5.970736228055613e-05,0
283,0.011319999999999997,4.99972120164681,0.0007941062093044515,0.00038595781056671464,0
284,0.011360000000000037,4.999063621342738,0.001122896037706475,5.46253240035166e-05,0
285,0.011400000000000077,5.000049991798719,0.0004653163810297567,0.0007096590481849409,0
286,0.011439999999999895,5.000049991798719,-0.0005210531030302584,0.001693479329149561,0
287,0.011479999999999935,5.000378781950543,-0.00019226327513760522,0.0013621370313182798,0
288,0.011519999999999975,5.000049991798719,0.0004653163810297567,0.0007020016421487921,0
289,0.011560000000000015,5.000049991798719,-0.00019226327513760522,0.0013570223060531603,0
290,0.011600000000000055,5.000049991798719,0.0007941062093044515,0.000368090573912794,0
291,0.011640000000000095,4.99972120164681,0.001122896037706475,3.6735246225635455e-05,0
292,0.011679999999999913,5.000049991798719,-0.00019226327513760522,0.0013493258120692122,0
293,0.011719999999999953,5.000049991798719,0.0007941062093044515,0.00036038433680573266,0
294,0.011759999999999993,4.99972120164681,0.0007941062093044515,0.00035780910608084826,0
295,0.011800000000000033,5.000049991798719,0.00013652655288240445,0.0010128102958150437,0
296,0.011840000000000073,5.000049991798719,0.001122896037706475,2.385911230370723e-05,0
297,0.011880000000000113,4.99972120164681,0.0004653163810297567,0.0006788538422803734,0
298,0.01191999999999993,5.000707572102282,0.0007941062093044515,0.00034747586330257236,0
299,0.01195999999999997,5.000707572102282,-0.00019226327513760522,0.0013312539770713196,0
300,0.01200000000000001,5.000049991798719,-0.001178632758433426,0.0023150288737796227,0
301,0.01204000000000005,5.000378781950543,0.0014516858662357995,-0.00031788754931216963,0
302,0.01208000000000009,5.000707572102282,0.0007941062093044515,0.00033709110146389385,0
303,0.012119999999999909,5.000378781950543,-0.00019226327513760522,0.0013208563761434888,0
304,0.012159999999999949,4.99972120164681,0.00013652655288240445,0.000989459138902603,0
305,0.012199999999999989,4.99972120164681,0.00013652655288240445,0.000986848534395316,0
306,0.012240000000000029,5.000049991798719,0.0007941062093044515,0.00032665508237484156,0
307,0.012280000000000069,4.99972120164681,0.0004653163810297567,0.0006528279281785214,0
308,0.012320000000000109,5.000378781950543,-0.00019226327513760522,0.0013077874192441385,0
309,0.012359999999999927,4.99972120164681,-0.00019226327513760522,0.001305164075776845,0
310,0.012399999999999967,5.000707572102282,-0.0005210531030302584,0.001631327386125178,0
311,0.012440000000000007,5.001036362253937,-0.001178632758433426,0.0022862773542188857,0
312,0.012480000000000047,4.99972120164681,-0.0008498429307955274,0.0019548546738416593,0
313,0.012520000000000087,5.000378781950543,-0.001178632758433426,0.0022810084876690373,0
314,0.012559999999999905,5.000049991798719,-0.0005210531030302584,0.001620789661766259,0
315,0.012599999999999945,5.000049991798719,-0.00019226327513760522,0.001289357511090459,0
316,0.012639999999999985,4.99972120164681,0.0004653163810297567,0.0006291323842854429,0
317,0.012680000000000025,5.000378781950543,0.0007941062093044515,0.00029769394197111,0
318,0.012720000000000065,5.000707572102282,0.00013652655288240445,0.0009526218454275758,0
319,0.012760000000000105,5.000378781950543,-0.0008498429307955274,0.001936336441713561,0
320,0.012799999999999923,5.000049991798719,0.0004653163810297567,0.0006185191125930986,0
321,0.012839999999999963,5.000049991798719,0.00013652655288240445,0.0009446477980887411,0
322,0.012880000000000003,4.99972120164681,0.0007941062093044515,0.00028440387822874935,0
323,0.012920000000000043,4.99972120164681,-0.00019226327513760522,0.0012681059830405312,0
324,0.012960000000000083,5.000049991798719,-0.00019226327513760522,0.0012654354918354644,0
325,0.0129999999999999,5.000049991798719,0.00013652655288240445,0.0009339720656767808,0
326,0.01303999999999994,4.99972120164681,-0.00019226327513760522,0.0012600851932893621,0
327,0.01307999999999998,4.99972120164681,-0.0008498429307955274,0.0019149850509596422,0
328,0.01312000000000002,5.000378781950543,0.00013652655288240445,0.0009259326764261011,0
329,0.01316000000000006,4.99972120164681,-0.0005210531030302584,0.0015808263533511543,0
330,0.0132000000000001,5.000378781950543,-0.0008498429307955274,0.001906927118756528,0
331,0.013239999999999919,5.000049991798719,-0.0005210531030302584,0.001575445150042553,0
332,0.013279999999999959,5.000378781950543,-0.0005210531030302584,0.0015727499353122923,0
333,0.013319999999999999,5.000049991798719,0.00013652655288240445,0.0009124719957188722,0
334,0.013360000000000039,5.000378781950543,0.00013652655288240445,0.000909770647942496,0
335,0.013400000000000079,5.000049991798719,-0.00019226327513760522,0.0012358560689692253,0
336,0.013439999999999896,5.000049991798719,0.00013652655288240445,0.0009043587796416003,0
337,0.013479999999999936,5.000707572102282,-0.00019226327513760522,0.0012304380969660985,0
338,0.013519999999999976,5.000378781950543,-0.0008498429307955274,0.001885304197490941,0
339,0.013560000000000016,5.000049991798719,-0.00019226327513760522,0.0012250079472366066,0
340,0.013600000000000056,5.000049991798719,-0.001178632758433426,0.0022086578014708412,0
341,0.013640000000000096,5.000049991798719,-0.00019226327513760522,0.0012195656596703684,0
342,0.013679999999999914,5.000049991798719,0.00013652655288240445,0.0008880501487487001,0
343,0.013719999999999954,5.000378781950543,0.00013652655288240445,0.0008853214465200711,0
344,0.013759999999999994,5.000049991798719,0.00013652655288240445,0.0008825897300585003,0
345,0.013800000000000034,5.000049991798719,0.00013652655288240445,0.0008798550044820242,0
346,0.013840000000000074,5.000049991798719,0.00013652655288240445,0.0008771172749327031,0
347,0.013879999999999892,4.99972120164681,0.001122896037706475,-0.00011199293824743254,0
348,0.013919999999999932,5.000049991798719,0.0007941062093044515,0.00021405316818193785,0
349,0.013959999999999972,5.000049991798719,0.0007941062093044515,0.00021130645780692851,0
350,0.014000000000000012,5.000049991798719,0.00013652655288240445,0.0008661364206899303,0
351,0.014040000000000052,4.99972120164681,0.00013652655288240445,0.0008633837492492763,0
352,0.014080000000000092,5.000378781950543,0.0007941062093044515,0.0002030484487715148,0
353,0.01411999999999991,5.000378781950543,0.0004653163810297567,0.0005290796656861193,0
354,0.01415999999999995,5.000378781950543,-0.0005210531030302584,0.0015126875764165091,0
355,0.01419999999999999,5.000378781950543,-0.00019226327513760522,0.0011811332185837071,0
356,0.01424000000000003,5.000707572102282,0.0004653163810297567,0.0005207860812488674,0
357,0.01428000000000007,5.000378781950543,0.0004653163810297567,0.0005180156542614542,0
358,0.01432000000000011,5.000049991798719,0.0004653163810297567,0.0005152422868857148,0
359,0.014359999999999928,4.99972120164681,0.0007941062093044515,0.00018367615630279332,0
360,0.014399999999999968,5.000378781950543,0.001122896037706475,-0.00014789290385986114,0
361,0.014440000000000008,4.99972120164681,0.001122896037706475,-0.00015067505956855567,0
362,0.014480000000000048,5.000049991798719,0.00013652655288240445,0.0008329093511273694,0
363,0.014520000000000088,5.000049991798719,0.001780475694892425,-0.0008138277778773446,0
364,0.014559999999999906,5.000049991798719,-0.0008498429307955274,0.001813699953526564,0
365,0.014599999999999946,5.000378781950543,0.00013652655288240445,0.0008245366738767645,0
366,0.014639999999999986,5.000378781950543,0.0007941062093044515,0.00016416032542087222,0
367,0.014680000000000026,4.999392411494816,0.00013652655288240445,0.0008189403993972876,0
368,0.014720000000000066,5.000049991798719,-0.0008498429307955274,0.0018025074158923497,0
369,0.014760000000000106,4.99972120164681,-0.00019226327513760522,0.001142122414013238,0
370,0.014799999999999924,4.99972120164681,-0.0005210531030302584,0.0014681040223696795,0
371,0.014839999999999964,5.000378781950543,-0.0005210531030302584,0.0014652929352661427,0
372,0.014880000000000004,4.99972120164681,0.00013652655288240445,0.0008048993304547253,0
373,0.014920000000000044,5.000378781950543,-0.0005210531030302584,0.0014596621814699459,0
374,0.014960000000000084,5.000707572102282,-0.0005210531030302584,0.001456842526394787,0
375,0.014999999999999902,5.000707572102282,0.00013652655288240445,0.0007964403710746679,0
376,0.015039999999999942,5.000378781950543,0.00013652655288240445,0.0007936150332047948,0
377,0.015079999999999982,4.99972120164681,0.0007941062093044515,0.00013320720634481546,0
378,0.015120000000000022,4.99972120164681,0.00013652655288240445,0.0007879558656797139,0
379,0.015160000000000062,5.000049991798719,0.001122896037706475,-0.000201247436937377,0
380,0.015200000000000102,5.000707572102282,0.00013652655288240445,0.000782285415355655,0
381,0.01523999999999992,5.000049991798719,-0.00019226327513760522,0.0011082358020989883,0
382,0.01527999999999996,4.99972120164681,0.00013652655288240445,0.00077660373007358,0
383,0.01532,5.000378781950543,0.0004653163810297567,0.0004449688612335692,0
384,0.01536000000000004,4.999392411494816,-0.00019226327513760522,0.0010997006860870356,0
385,0.01540000000000008,5.000049991798719,0.0004653163810297567,0.00043927041407513894,0
386,0.015439999999999898,4.99972120164681,0.0007941062093044515,0.00010762719154044822,0
387,0.015479999999999938,4.99972120164681,0.0007941062093044515,0.00010477102500476435,0
388,0.015519999999999978,5.000049991798719,0.0007941062093044515,0.00010191209235777367,0
389,0.015560000000000018,5.000707572102282,0.0004653163810297567,0.0004278402280631711,0
390,0.015600000000000058,4.99972120164681,0.0007941062093044515,9.618595351050334e-05,0
391,0.0156400000000001,5.000378781950543,-0.00019226327513760522,0.0010796882442041826,0
392,0.015679999999999916,5.000378781950543,0.0004653163810297567,0.0004192386530809661,0
393,0.015719999999999956,4.99972120164681,0.00013652655288240445,0.0007451558113525751,0
394,0.015759999999999996,5.000049991798719,-0.00019226327513760522,0.0010710702408892204,0
395,0.015800000000000036,5.000049991798719,0.0004653163810297567,0.00041061246396782724,0
396,0.015840000000000076,5.001036362253937,0.0004653163810297567,0.000407731627304779,0
397,0.015879999999999894,5.000378781950543,-0.0008498429307955274,0.0017200073929443552,0
398,0.015919999999999934,5.000378781950543,0.00013652655288240445,0.0007307516599691329,0
399,0.015959999999999974,4.99972120164681,0.00013652655288240445,0.000727862713996058,0
400,0.016000000000000014,5.000049991798719,-0.001178632758433426,0.0020401303891235626,0
401,0.016040000000000054,5.000049991798719,0.00013652655288240445,0.000722076757889434,0
402,0.016080000000000094,4.999392411494816,0.00013652655288240445,0.0007191797607511898,0
403,0.016119999999999912,4.999392411494816,0.0004653163810297567,0.00038749026478043704,0
404,0.016159999999999952,5.000049991798719,0.0007941062093044515,5.579810455674523e-05,0
405,0.016199999999999992,4.99972120164681,0.0004653163810297567,0.00038168294334118755,0
406,0.016240000000000032,5.000378781950543,0.00013652655288240445,0.0007075651310661624,0
407,0.016280000000000072,5.000378781950543,0.0007941062093044515,4.707518992354352e-05,0
408,0.016320000000000112,5.000049991798719,0.00013652655288240445,0.0007017419239855598,0
409,0.01635999999999993,4.99972120164681,0.0004653163810297567,0.0003700365425222728,0
410,0.01639999999999997,5.000378781950543,-0.0005210531030302584,0.001353487849018825,0
411,0.01644000000000001,5.000049991798719,0.00013652655288240445,0.0006929873980283849,0
412,0.01648000000000005,4.99972120164681,0.00013652655288240445,0.000690063992194345,0
413,0.01652000000000009,5.000049991798719,0.00013652655288240445,0.0006871379823869454,0
414,0.016559999999999908,5.000049991798719,0.0007941062093044515,2.662971899189859e-05,0
415,0.016599999999999948,5.000049991798719,0.0004653163810297567,0.00035248834996061537,0
416,0.016639999999999988,5.000378781950543,0.0007941062093044515,2.0764740904458817e-05,0
417,0.016680000000000028,4.999392411494816,0.001122896037706475,-0.0003109614448721398,0
418,0.016720000000000068,5.000378781950543,-0.0005210531030302584,0.0013300487688041591,0
419,0.016760000000000108,4.99972120164681,0.00013652655288240445,0.0006695276230773529,0
420,0.016799999999999926,5.000378781950543,0.0014516858662357995,-0.0006485757358868516,0
421,0.016839999999999966,5.000049991798719,-0.00019226327513760522,0.0009924268110610233,0
422,0.016880000000000006,4.99972120164681,0.001122896037706475,-0.0003256816380164454,0
423,0.016920000000000046,5.000707572102282,0.0004653163810297567,0.00032894634765079443,0
424,0.016960000000000086,5.000049991798719,0.00013652655288240445,0.0006547819770692746,0
425,0.016999999999999904,4.99972120164681,-0.00019226327513760522,0.000980615085722642,0
426,0.017039999999999944,4.99972120164681,0.00013652655288240445,0.0006488660248047792,0
427,0.017079999999999984,4.99972120164681,0.0004653163810297567,0.00031711445735986186,0
428,0.017120000000000024,4.99972120164681,0.0007941062093044515,-1.4639609455664856e-05,0
429,0.017160000000000064,5.000049991798719,0.0014516858662357995,-0.0006751859969897154,0
430,0.017200000000000104,4.99972120164681,0.001122896037706475,-0.0003493653839186123,0
431,0.017239999999999922,5.000049991798719,0.0014516858662357995,-0.0006811269055303586,0
432,0.017279999999999962,5.000049991798719,0.0007941062093044515,-2.6521412049346953e-05,0
433,0.017320000000000002,5.000049991798719,0.001780475694892425,-0.001015867524174308,0
434,0.017360000000000042,5.000378781950543,0.001122896037706475,-0.0003612669493057582,0
435,0.017400000000000082,4.99972120164681,0.0007941062093044515,-3.5458651670318116e-05,0
436,0.0174399999999999,5.000049991798719,0.001122896037706475,-0.0003672324519318897,0
437,0.01747999999999994,5.000049991798719,0.0007941062093044515,-4.142902910116478e-05,0
438,0.01751999999999998,5.000049991798719,0.0007941062093044515,-4.441786097799966e-05,0
439,0.01756000000000002,4.99972120164681,0.0004653163810297567,0.00028138071654554015,0
440,0.01760000000000006,5.000049991798719,-0.0005210531030302584,0.001264756538436303,0
441,0.0176400000000001,5.000049991798719,0.0007941062093044515,-5.3398840004521635e-05,0
442,0.017679999999999918,5.000049991798719,0.001122896037706475,-0.00038518713094328133,0
443,0.017719999999999958,4.99972120164681,0.0004653163810297567,0.00026939167429733586,0
444,0.017759999999999998,5.000049991798719,0.001122896037706475,-0.0003911912151585732,0
445,0.017800000000000038,5.000049991798719,0.0004653163810297567,0.0002633828349771568,0
446,0.017840000000000078,4.99972120164681,0.0007941062093044515,-6.841496599400737e-05,0
447,0.017879999999999896,4.99972120164681,0.0014516858662357995,-0.0007290049541459668,0
448,0.017919999999999936,4.999392411494816,0.0007941062093044515,-7.443797930300556e-05,0
449,0.017959999999999976,5.000049991798719,0.001122896037706475,-0.0004062428329797915,0
450,0.018000000000000016,4.99972120164681,0.00013652655288240445,0.0005771092910895716,0
451,0.018040000000000056,5.000049991798719,0.00013652655288240445,0.0005740896025863892,0
452,0.018080000000000096,5.000049991798719,0.0004653163810297567,0.00024227776594388595,0
453,0.018119999999999914,4.99972120164681,0.00013652655288240445,0.000568043273385665,0
454,0.018159999999999954,4.99972120164681,0.00013652655288240445,0.0005650166482762601,0
455,0.018199999999999994,5.000049991798719,0.0004653163810297567,0.00023319789844730482,0
456,0.018240000000000034,5.000049991798719,0.00013652655288240445,0.0005589565161975335,0
457,0.018280000000000074,4.999392411494816,0.0004653163810297567,0.0002271331968192648,0
458,0.018320000000000114,5.000707572102282,0.0007941062093044515,-0.0001046923956133641,0
459,0.018359999999999932,4.999392411494816,-0.00019226327513760522,0.0008786390596755669,0
460,0.018399999999999972,5.000378781950543,0.00013652655288240445,0.0005468089454641195,0
461,0.018440000000000012,5.000049991798719,0.00013652655288240445,0.0005437664102162973,0
462,0.018480000000000052,5.000049991798719,-0.001178632758433426,0.0018558809452349015,0
463,0.018520000000000092,5.000049991798719,0.00013652655288240445,0.0005376746246044759,0
464,0.01855999999999991,5.000049991798719,-0.00019226327513760522,0.0008634152183496017,0
465,0.01859999999999995,5.000378781950543,-0.00019226327513760522,0.0008603637671965625,0
466,0.01863999999999999,4.99972120164681,0.0004653163810297567,0.00019973045110518702,0
467,0.01868000000000003,5.000049991798719,0.0004653163810297567,0.00019667459054242625,0
468,0.01872000000000007,5.001036362253937,0.001122896037706475,-0.00046396311917852465,0
469,0.01876000000000011,4.999392411494816,0.00013652655288240445,0.0005193461283021608,0
470,0.018799999999999928,5.000378781950543,0.0007941062093044515,-0.00014129594155505337,0
471,0.018839999999999968,4.999063621342738,-0.0005210531030302584,0.0011707987894851212,0
472,0.018880000000000008,5.000049991798719,0.0024380553525874815,-0.001791376407029057,0
473,0.018920000000000048,4.999063621342738,0.0004653163810297567,0.00017829367231282395,0
474,0.018960000000000088,4.99972120164681,0.0007941062093044515,-0.0001535671911895713,0
475,0.018999999999999906,5.000707572102282,0.0004653163810297567,0.00017214946717814884,0
476,0.019039999999999946,4.999392411494816,-0.0018362124133269458,0.002470602965306221,0
477,0.019079999999999986,5.001365152405508,-0.0005210531030302584,0.0011523662408419021,0
478,0.019120000000000026,5.000378781950543,-0.004137741201439435,0.00476597481555212,1
479,0.019160000000000066,4.99972120164681,0.0021092655236763236,-0.0014841135343612137,0
480,0.019200000000000106,5.001036362253937,-0.001178632758433426,0.0018007010303100622,0
481,0.019239999999999924,4.997748460733576,0.0004653163810297567,0.00015366608925027352,0
482,0.019279999999999964,4.997419670581074,0.0007941062093044515,-0.0001782116162713836,0
483,0.019320000000000004,5.001036362253937,0.0007941062093044515,-0.00018130156063590275,0
484,0.019360000000000044,4.999392411494816,-0.001178632758433426,0.0017883454041777147,0
485,0.019400000000000084,5.000707572102282,-0.0005210531030302584,0.0011276716958733778,0
486,0.019439999999999902,5.000049991798719,-0.0015074225859438989,0.0021109450845167724,0
487,0.019479999999999942,5.000378781950543,0.00013652655288240445,0.0004638978186839873,0
488,0.019519999999999982,5.000707572102282,0.0004653163810297567,0.0001320078394517483,0
489,0.019560000000000022,5.000049991798719,-0.0005210531030302584,0.0011152751570312953,0
490,0.019600000000000062,5.000049991798719,-0.0015074225859438989,0.0020985404667766966,0
491,0.019640000000000102,4.99972120164681,-0.00019226327513760522,0.000780274984847183,0
492,0.01967999999999992,4.99972120164681,-0.0005210531030302584,0.0011059566524193967,0
493,0.01971999999999996,4.99972120164681,-0.0005210531030302584,0.001102846511684469,0
494,0.01976,4.99972120164681,-0.0008498429307955274,0.0014285242271080134,0
495,0.01980000000000004,5.000707572102282,-0.00019226327513760522,0.0007678304963342161,0
496,0.01984000000000008,4.99972120164681,-0.0005210531030302584,0.0010935042951944372,0
497,0.019879999999999898,5.000378781950543,-0.0008498429307955274,0.0014191761488932565,0
498,0.019919999999999938,5.000378781950543,0.0004653163810297567,0.00010089692687498275,0
499,0.019959999999999978,5.000378781950543,-0.0008498429307955274,0.0014129344013131442,0
500,0.020000000000000018,5.000049991798719,-0.001178632758433426,0.0017386004733271267,0
501,0.020040000000000058,5.000049991798719,-0.00019226327513760522,0.0007491053251528523,0
502,0.020080000000000098,5.000378781950543,-0.001178632758433426,0.0017323472433228458,0
503,0.020119999999999916,5.000049991798719,0.00013652655288240445,0.0004140584756658868,0
504,0.020159999999999956,5.000378781950543,-0.0005210531030302584,0.0010685067930790832,0
505,0.020199999999999996,4.99972120164681,-0.0018362124133269458,0.0023805328917998227,0
506,0.020240000000000036,5.000049991798719,-0.00019226327513760522,0.0007334486780647921,0
507,0.020280000000000076,5.000707572102282,-0.0005210531030302584,0.0010591015755736202,0
508,0.020319999999999894,4.99972120164681,-0.00019226327513760522,0.0007271729716154821,0
509,0.020359999999999934,5.000378781950543,0.00013652655288240445,0.00039524253102965457,0
510,0.020399999999999974,5.000049991798719,-0.0008498429307955274,0.0013784695748476096,0
511,0.020440000000000014,5.000049991798719,-0.00019226327513760522,0.000717745661266567,0
512,0.020480000000000054,4.99972120164681,-0.00019226327513760522,0.000714599594536143,0
513,0.020520000000000094,4.99972120164681,0.00013652655288240445,0.00038266190025906756,0
514,0.02055999999999991,5.000049991798719,0.0004653163810297567,5.072241563347838e-05,0
515,0.02059999999999995,5.000049991798719,0.0007941062093044515,-0.00028121885001035373,0
516,0.02063999999999999,4.99972120164681,-0.0005210531030302584,0.0010307872534193801,0
517,0.02068000000000003,4.99972120164681,-0.0005210531030302584,0.001027632282358413,0
518,0.02072000000000007,5.000049991798719,-0.0008498429307955274,0.0013532653863113416,0
519,0.02076000000000011,4.99972120164681,-0.00019226327513760522,0.0006925272635190901,0
520,0.02079999999999993,5.000378781950543,-0.0008498429307955274,0.0013469467181748279,0
521,0.02083999999999997,5.000049991798719,-0.001178632758433426,0.001672574620421567,0
522,0.02088000000000001,5.000049991798719,0.00013652655288240445,0.00035425166882921367,0
523,0.02092000000000005,5.000378781950543,-0.0008498429307955274,0.0013374558068735892,0
524,0.02096000000000009,5.000049991798719,-0.0018362124133269458,0.0023206582479674623,0
525,0.020999999999999908,5.000049991798719,-0.00019226327513760522,0.0006735403821143281,0
526,0.021039999999999948,4.99972120164681,-0.0005210531030302584,0.0009991598057193579,0
527,0.021079999999999988,5.000378781950543,-0.0008498429307955274,0.001324777562200265,0
528,0.021120000000000028,5.000049991798719,-0.00019226327513760522,0.0006640241779129926,0
529,0.021160000000000068,5.000378781950543,-0.00019226327513760522,0.0006608488016150507,0
530,0.021200000000000108,5.000378781950543,-0.0008498429307955274,0.0013152514430074729,0
531,0.021239999999999926,5.000378781950543,0.00013652655288240445,0.0003257033168221423,0
532,0.021279999999999966,4.99972120164681,0.00013652655288240445,0.0003225230558231122,0
533,0.021320000000000006,5.000049991798719,0.00013652655288240445,0.00031934118610731847,0
534,0.021360000000000046,4.99972120164681,-0.00019226327513760522,0.0006449475454942228,0
535,0.021400000000000086,5.000378781950543,-0.001178632758433426,0.0016281319710636497,0
536,0.021439999999999904,5.000378781950543,-0.0008498429307955274,0.0012961555064546497,0
537,0.021479999999999944,5.000378781950543,-0.0008498429307955274,0.001292967300111959,0
538,0.021519999999999984,4.99972120164681,-0.0005210531030302584,0.0009609877065300571,0
539,0.021560000000000024,5.000049991798719,-0.0005210531030302584,0.0009577963911616381,0
540,0.021600000000000064,5.000378781950543,-0.0008498429307955274,0.0012833933639533554,0
541,0.021640000000000104,5.000378781950543,-0.00019226327513760522,0.0006226193236878835,0
542,0.02167999999999992,4.99972120164681,-0.0005210531030302584,0.000948213247334587,0
543,0.02171999999999996,5.000378781950543,-0.0008498429307955274,0.0012738056612355579,0
544,0.02176,4.99972120164681,0.00013652655288240445,0.00028423726411946784,0
545,0.02180000000000004,4.99972120164681,0.00013652655288240445,0.0002810368611763553,0
546,0.02184000000000008,5.000049991798719,-0.00019226327513760522,0.0006066248068416101,0
547,0.0218799999999999,4.99972120164681,-0.00019226327513760522,0.0006034214551929113,0
548,0.02191999999999994,5.000378781950543,0.00013652655288240445,0.00027142681637232766,0
549,0.02195999999999998,5.000378781950543,-0.00019226327513760522,0.0005970103846063078,0
550,0.02200000000000002,4.99972120164681,-0.0008498429307955274,0.0012513823416835008,0
551,0.02204000000000006,5.000378781950543,-0.001178632758433426,0.001576963042161044,0
552,0.0220800000000001,5.000378781950543,-0.0005210531030302584,0.0009161728412572685,0
553,0.022119999999999918,5.000049991798719,-0.001178632758433426,0.0015705405430832297,0
554,0.022159999999999958,5.000049991798719,-0.0005210531030302584,0.0009097475363141776,0
555,0.022199999999999998,5.000049991798719,-0.0008498429307955274,0.0012353226252370473,0
556,0.022240000000000038,5.000378781950543,-0.001178632758433426,0.0015608963368924258,0
557,0.022280000000000078,5.000049991798719,-0.00019226327513760522,0.0005713093708345689,0
558,0.022319999999999895,4.99972120164681,-0.0005210531030302584,0.000896880359570466,0
559,0.022359999999999935,4.99972120164681,-0.001178632758433426,0.0015512398298311303,0
560,0.022399999999999975,5.000378781950543,-0.0005210531030302584,0.0008904386537328406,0
561,0.022440000000000015,5.000049991798719,-0.0015074225859438989,0.0018735852908560028,0
562,0.022480000000000055,4.999392411494816,-0.0005210531030302584,0.0008839916475379117,0
563,0.022520000000000095,5.000378781950543,-0.0008498429307955274,0.001209556010790234,0
564,0.022559999999999913,5.000049991798719,-0.0008498429307955274,0.0012063292526983483,0
565,0.022599999999999953,5.000049991798719,-0.00019226327513760522,0.0005455215559232153,0
566,0.022639999999999993,5.000049991798719,-0.00019226327513760522,0.0005422922423583297,0
567,0.022680000000000033,5.000049991798719,-0.001178632758433426,0.0015254311502432586,0
568,0.022720000000000073,5.000049991798719,0.00013652655288240445,0.00020704001229619653,0
569,0.022760000000000113,4.99972120164681,-0.00019226327513760522,0.0005325967731142708,0
570,0.02279999999999993,5.000378781950543,-0.0005210531030302584,0.0008581523039078753,0
571,0.02283999999999997,4.99972120164681,0.0004653163810297567,-0.0001314526964507831,0
572,0.02288000000000001,4.99972120164681,-0.0008498429307955274,0.0011804698905976867,0
573,0.02292000000000005,4.99972120164681,0.00013652655288240445,0.00019086248441008299,0
574,0.02296000000000009,5.000378781950543,0.00013652655288240445,0.0001876233749367232,0
575,0.02299999999999991,5.001036362253937,-0.0008498429307955274,0.0011707525729706177,0
576,0.02303999999999995,4.99972120164681,0.0004653163810297567,-0.00014764818985255382,0
577,0.02307999999999999,5.000049991798719,0.00013652655288240445,0.00017789903278367597,0
578,0.02312000000000003,4.99972120164681,-0.0005210531030302584,0.0008322349395363702,0
579,0.02316000000000007,5.000049991798719,0.00013652655288240445,0.0001714104017030275,0
580,0.02320000000000011,5.000707572102282,-0.0005210531030302584,0.0008257440538461524,0
581,0.023239999999999927,4.99972120164681,-0.00019226327513760522,0.0004937071112706567,0
582,0.023279999999999967,5.000378781950543,0.0004653163810297567,-0.00016712075953362847,0
583,0.023320000000000007,5.000049991798719,0.00013652655288240445,0.00015841976500559091,0
584,0.023360000000000047,5.000049991798719,0.00013652655288240445,0.00015516938343274533,0
585,0.023400000000000087,5.000378781950543,0.00013652655288240445,0.0001519179349252814,0
586,0.023439999999999905,5.000378781950543,-0.001178632758433426,0.0014638247418526983,0
587,0.023479999999999945,4.99972120164681,-0.0005210531030302584,0.0008029915372573858,0
588,0.023519999999999985,4.99972120164681,-0.0005210531030302584,0.0007997369543622439,0
589,0.023560000000000025,4.99972120164681,-0.00019226327513760522,0.00046769152099567955,0
590,0.023600000000000065,5.000378781950543,-0.0005210531030302584,0.0007932247319833452,0
591,0.023640000000000105,5.000378781950543,0.00013652655288240445,0.00013238745890575268,0
592,0.023679999999999923,5.000049991798719,-0.00019226327513760522,0.00045791868069543565,0
593,0.023719999999999963,5.000049991798719,-0.0008498429307955274,0.0011122387522755689,0
594,0.023760000000000003,5.000049991798719,-0.001178632758433426,0.0014377680292295117,0
595,0.023800000000000043,4.99972120164681,0.00013652655288240445,0.00011934721188818745,0
596,0.023840000000000083,5.000049991798719,-0.0005210531030302584,0.0007736644177217504,0
597,0.0238799999999999,4.99972120164681,-0.0008498429307955274,0.0010991908626655279,0
598,0.02391999999999994,5.000049991798719,0.00013652655288240445,0.00010955707475817592,0
599,0.02395999999999998,5.000049991798719,-0.0008498429307955274,0.0010926613441564407,0
600,0.02400000000000002,4.999392411494816,-0.0005210531030302584,0.0007606054034421366,0
601,0.02404000000000006,5.000378781950543,-0.0005210531030302584,0.0007573384032277728,0
602,0.0240800000000001,5.000707572102282,-0.00019226327513760522,0.00042528069928260263,0
603,0.02411999999999992,5.000378781950543,-0.0008498429307955274,0.0010795916145001346,0
604,0.02415999999999996,5.000049991798719,-0.0005210531030302584,0.00074753219337996,0
605,0.0242,5.000049991798719,-0.0005210531030302584,0.0007442617586069416,0
606,0.02424000000000004,5.000378781950543,0.0007941062093044515,-0.0005741688183994796,0
607,0.02428000000000008,5.000707572102282,-0.0005210531030302584,0.0007377184109072305,0
608,0.024319999999999897,5.000049991798719,0.00013652655288240445,7.686586517564615e-05,0
609,0.024359999999999937,4.99972120164681,0.0004653163810297567,-0.00025519764799326146,0
610,0.024399999999999977,5.000378781950543,-0.0005210531030302584,0.0007278973674537501,0
611,0.024440000000000017,5.000378781950543,0.0007941062093044515,-0.0005905371854513577,0
612,0.024480000000000057,5.000049991798719,-0.0005210531030302584,0.0007213461260124407,0
613,0.024520000000000097,5.000049991798719,-0.0005210531030302584,0.0007180693765207046,0
614,0.024559999999999915,4.99972120164681,0.00013652655288240445,5.721223419793346e-05,0
615,0.024599999999999955,5.000049991798719,0.0004653163810297567,-0.0002748558055527123,0
616,0.024639999999999995,5.000707572102282,-0.0008498429307955274,0.0010370245812239827,0
617,0.024680000000000035,5.000378781950543,-0.0008498429307955274,0.0010337449545006604,0
618,0.024720000000000075,5.000049991798719,-0.0005210531030302584,0.0007016748101305316,0
619,0.024759999999999893,5.000707572102282,0.00013652655288240445,4.081415954727049e-05,0
620,0.024799999999999933,5.000049991798719,-0.0005210531030302584,0.0006951121545619643,0
621,0.024839999999999973,5.000049991798719,-0.0008498429307955274,0.0010206196670627977,0
622,0.024880000000000013,5.000378781950543,-0.0005210531030302584,0.000688546881550029,0
623,0.024920000000000053,5.000378781950543,0.00013652655288240445,2.76836373126674e-05,0
624,0.024960000000000093,5.000378781950543,-0.0005210531030302584,0.000681979086251727,0
625,0.02499999999999991,4.999392411494816,0.0004653163810297567,-0.00030767521148010305,0
626,0.02503999999999995,5.000049991798719,0.0004653163810297567,-0.0003109606198770803,0
627,0.02507999999999999,5.000378781950543,-0.0005210531030302584,0.000672122873056174,0
628,0.02512000000000003,5.000049991798719,0.00013652655288240445,1.1256655304640699e-05,0
629,0.02516000000000007,5.000378781950543,-0.0008498429307955274,0.0009943390184715191,0
630,0.02520000000000011,5.000378781950543,0.00013652655288240445,4.6818676725025096e-06,0
631,0.02523999999999993,5.000049991798719,-0.00019226327513760522,0.00033018349404572713,0
632,0.02527999999999997,5.000378781950543,-0.0005210531030302584,0.0006556845978723778,0
633,0.02532000000000001,5.000049991798719,-0.00019226327513760522,0.0003236055356230993,0
634,0.02536000000000005,5.000378781950543,-0.0005210531030302584,0.0006491056310191734,0
635,0.02540000000000009,5.000378781950543,-0.00019226327513760522,0.00031702558466269615,0
636,0.025439999999999907,5.000049991798719,0.0004653163810297567,-0.00034384476374102664,0
637,0.025479999999999947,4.99972120164681,-0.0008498429307955274,0.0009680233942920315,0
638,0.025519999999999987,5.000049991798719,0.0004653163810297567,-0.00035042752064273937,0
639,0.025560000000000027,5.000049991798719,-0.0005210531030302584,0.0006326499232510174,0
640,0.025600000000000067,5.000378781950543,-0.0005210531030302584,0.0006293574583103352,0
641,0.025640000000000107,5.000049991798719,-0.00019226327513760522,0.0002972747530067346,0
642,0.025679999999999925,5.000049991798719,0.00013652655288240445,-3.480835256855258e-05,0
643,0.025719999999999965,5.000378781950543,-0.0005210531030302584,0.0006194776379921744,0
644,0.025760000000000005,4.999392411494816,-0.0005210531030302584,0.0006161835972129501,0
645,0.025800000000000045,5.001036362253937,-0.0008498429307955274,0.0009416790211627322,0
646,0.025840000000000085,5.000707572102282,0.0004653163810297567,-0.00037677504510165677,0
647,0.025879999999999903,4.99972120164681,-0.001178632758433426,0.0012638790017330216,0
648,0.025919999999999943,4.999392411494816,-0.001178632758433426,0.0012605835833708796,0
649,0.025959999999999983,5.000049991798719,-0.00019226327513760522,0.00027091836845653295,0
650,0.026000000000000023,5.000049991798719,-0.00019226327513760522,0.00026762233608033123,0
651,0.026040000000000063,4.99972120164681,-0.0005210531030302584,0.0005931158433592325,0
652,0.026080000000000103,4.999392411494816,0.00013652655288240445,-6.776040886323324e-05,0
653,0.02611999999999992,5.000049991798719,0.00013652655288240445,-7.105726830625831e-05,0
654,0.02615999999999996,5.000049991798719,-0.00019226327513760522,0.0002544354497216229,0
655,0.0262,5.000049991798719,-0.00019226327513760522,0.00025113810178575857,0
656,0.02624000000000004,5.000049991798719,-0.00019226327513760522,0.0002478405285327304,0
657,0.02628000000000008,5.000049991798719,0.0004653163810297567,-0.0004130369135570875,0
658,0.0263199999999999,4.99972120164681,-0.00019226327513760522,0.0002412447566872459,0
659,0.02635999999999994,5.000049991798719,-0.0015074225859438989,0.0015531058942598762,0
660,0.02639999999999998,5.000049991798719,0.00013652655288240445,-9.414159239975193e-05,0
661,0.02644000000000002,5.000378781950543,-0.00019226327513760522,0.00023134972591922908,0
662,0.02648000000000006,4.99972120164681,-0.00019226327513760522,0.0002280510671034061,0
663,0.0265200000000001,5.000049991798719,0.0004653163810297567,-0.0004328273842207596,0
664,0.026559999999999917,5.000049991798719,-0.00019226327513760522,0.00022145335324349113,0
665,0.026599999999999957,5.000378781950543,0.00013652655288240445,-0.00011063550421044443,0
666,0.026639999999999997,5.001036362253937,-0.00019226327513760522,0.00021485519648108554,0
667,0.026680000000000037,5.000378781950543,0.00013652655288240445,-0.00011723384390497076,0
668,0.026720000000000077,5.000378781950543,0.00013652655288240445,-0.00012053312843092272,0
669,0.026759999999999895,5.000049991798719,0.00013652655288240445,-0.000123832472218487,0
670,0.026799999999999935,5.000049991798719,0.00013652655288240445,-0.00012713186234878998,0
671,0.026839999999999975,5.000049991798719,-0.0008498429307955274,0.0008559381977955084,0
672,0.026880000000000015,5.000707572102282,-0.00019226327513760522,0.00019505909816051935,0
673,0.026920000000000055,5.000378781950543,0.00013652655288240445,-0.00013703018129965618,0
674,0.026960000000000095,5.000378781950543,-0.00019226327513760522,0.00018846020081781517,0
675,0.026999999999999913,5.001036362253937,0.0014516858662357995,-0.001458788367899427,0
676,0.027039999999999953,4.99972120164681,0.0004653163810297567,-0.0004757182784371572,0
677,0.027079999999999993,5.000049991798719,-0.0015074225859438989,0.0014937213374544042,0
678,0.027120000000000033,4.99972120164681,-0.00019226327513760522,0.0001752627333095081,0
679,0.027160000000000073,4.999392411494816,-0.0018362124133269458,0.0018159126490056884,0
680,0.027200000000000113,5.000378781950543,0.001780475694892425,-0.001804074597739346,0
681,0.02723999999999993,4.999063621342738,0.0007941062093044515,-0.0008210041535674497,0
682,0.02727999999999997,4.999063621342738,-0.0008498429307955274,0.0008196460553881335,0
683,0.02732000000000001,4.99972120164681,0.0021092655236763236,-0.002142761206774385,0
684,0.02736000000000005,4.998077250885994,-0.0008498429307955274,0.0008130485766624617,0
685,0.02740000000000009,5.000049991798719,0.001780475694892425,-0.0018205685701830308,0
686,0.02743999999999991,5.001693942556992,-0.001178632758433426,0.0011352415251043302,0
687,0.02747999999999995,4.9967620902758165,0.0007941062093044515,-0.0008407956242916397,0
688,0.02751999999999999,5.000049991798719,-0.0015074225859438989,0.001457435178960038,0
689,0.02756000000000003,4.999063621342738,-0.0005210531030302584,0.0004677679070118133,0
690,0.02760000000000007,5.000049991798719,-0.003808951374948702,0.0037523686061780065,0
691,0.02764000000000011,5.000049991798719,-0.0008498429307955274,0.0007899628188947083,0
692,0.027679999999999927,5.000049991798719,0.0004653163810297567,-0.0005284935930793108,0
693,0.027719999999999967,4.999063621342738,-0.00019226327513760522,0.00012578921929940552,0
694,0.027760000000000007,4.99972120164681,-0.00019226327513760522,0.00012249264526893592,0
695,0.027800000000000047,4.99972120164681,0.0004653163810297567,-0.0005383833017533043,0
696,0.027840000000000087,5.000049991798719,-0.0008498429307955274,0.0007734800158293838,0
697,0.027879999999999905,5.000378781950543,0.0004653163810297567,-0.0005449749801702934,0
698,0.027919999999999945,4.99972120164681,0.0004653163810297567,-0.0005482703408013982,0
699,0.027959999999999985,4.99972120164681,0.00013652655288240445,-0.00022277553624765536,0
700,0.028000000000000025,5.000378781950543,0.001122896037706475,-0.0012124396941145664,0
701,0.028040000000000065,5.000049991798719,0.00013652655288240445,-0.0002293645182502882,0
702,0.028080000000000105,5.000049991798719,-0.001178632758433426,0.001082500861740032,0
703,0.028119999999999923,5.000049991798719,-0.00019226327513760522,9.283783832311169e-05,0
704,0.028159999999999963,5.000378781950543,-0.0008498429307955274,0.0007471243586533093,0
705,0.028200000000000003,4.99972120164681,-0.001178632758433426,0.0010726214693646098,0
706,0.028240000000000043,5.000707572102282,0.00013652655288240445,-0.0002458301268502131,0
707,0.028280000000000083,4.99972120164681,-0.0005210531030302584,0.00040845768983621206,0
708,0.0283199999999999,5.000378781950543,0.00013652655288240445,-0.0002524133459661633,0
709,0.02835999999999994,5.000049991798719,0.0007941062093044515,-0.0009132839092590714,0
710,0.02839999999999998,5.000378781950543,-0.0008498429307955274,0.0007273748106897264,0
711,0.02844000000000002,5.000378781950543,-0.00019226327513760522,6.650523531957894e-05,0
712,0.02848000000000006,5.000049991798719,-0.0008498429307955274,0.0007207954854418857,0
713,0.0285200000000001,4.999392411494816,0.00013652655288240445,-0.00026886287583907046,0
714,0.02855999999999992,4.99972120164681,-0.001178632758433426,0.0010430080995805686,0
715,0.02859999999999996,5.000707572102282,0.0004653163810297567,-0.000604228820279519,0
716,0.02864,4.99972120164681,-0.00019226327513760522,5.0063624800819086e-05,0
717,0.02868000000000004,5.000378781950543,0.00013652655288240445,-0.0002820128311676459,0
718,0.02872000000000008,4.99972120164681,-0.0005210531030302584,0.0003722807937818425,0
719,0.028759999999999897,4.99972120164681,-0.00019226327513760522,4.0205545775978094e-05,0
720,0.028799999999999937,4.99972120164681,-0.0005210531030302584,0.0003657105782879713,0
721,0.028839999999999977,5.000049991798719,-0.0008498429307955274,0.00069121624930557,0
722,0.028880000000000017,5.000378781950543,0.0004653163810297567,-0.0006272265667161675,0
723,0.028920000000000057,5.000049991798719,-0.0008498429307955274,0.0006846499073998317,0
724,0.028960000000000097,5.000049991798719,-0.00019226327513760522,2.3788094473419386e-05,0
725,0.028999999999999915,5.000049991798719,-0.00019226327513760522,2.050663161695253e-05,0
726,0.029039999999999955,5.000049991798719,-0.0005210531030302584,0.0003460157050539392,0
727,0.029079999999999995,5.000707572102282,-0.00019226327513760522,1.3945845112681675e-05,0
728,0.029120000000000035,5.000378781950543,-0.0008498429307955274,0.0006682462051527447,0
729,0.029160000000000075,4.99972120164681,-0.0018362124133269458,0.0016513371425380936,0
730,0.029200000000000115,4.99972120164681,0.0004653163810297567,-0.000653469432434547,0
731,0.029239999999999933,5.000049991798719,-0.0005210531030302584,0.00032962304961522894,0
732,0.029279999999999973,5.000049991798719,0.00013652655288240445,-0.0003312328156092263,0
733,0.029320000000000013,5.000378781950543,0.00013652655288240445,-0.00033450821811271925,0
734,0.029360000000000053,5.000707572102282,-0.00019226327513760522,-8.99297166100392e-06,0
735,0.029400000000000093,4.99972120164681,-0.00019226327513760522,-1.2266718150219123e-05,0
736,0.02943999999999991,5.000707572102282,0.00013652655288240445,-0.0003443294434195693,0
737,0.02947999999999995,5.000378781950543,-0.0008498429307955274,0.0006387680064265423,0
738,0.02951999999999999,5.000049991798719,0.001122896037706475,-0.0013372421182953236,0
739,0.02956000000000003,5.000378781950543,0.0004653163810297567,-0.00068293272601536,0
740,0.02960000000000007,5.000049991798719,-0.00019226327513760522,-2.862242819382779e-05,0
741,0.02964000000000011,5.000049991798719,-0.00019226327513760522,-3.189086624432586e-05,0
742,0.02967999999999993,5.000378781950543,0.00013652655288240445,-0.0003639481977585735,0
743,0.02971999999999997,5.000049991798719,-0.0005210531030302584,0.00029036490349349723,0
744,0.02976000000000001,5.000378781950543,0.0007941062093044515,-0.0010280600003743793,0
745,0.02980000000000005,5.000049991798719,-0.0005210531030302584,0.0002838346978646891,0
746,0.02984000000000009,5.000049991798719,0.0007941062093044515,-0.0010345882368017754,0
747,0.029879999999999907,5.000378781950543,-0.00019226327513760522,-5.1481368585044895e-05,0
748,0.029919999999999947,4.999392411494816,-0.0008498429307955274,0.0006028366913126426,0
749,0.029959999999999987,5.000378781950543,0.0007941062093044515,-0.0010443730097077664,0
750,0.030000000000000027,5.000049991798719,0.00013652655288240445,-0.00039005286497565447,0
751,0.030040000000000067,5.000378781950543,-0.00019226327513760522,-6.452148500847403e-05,0
752,0.030080000000000107,5.000378781950543,-0.0005210531030302584,0.00026101097289091057,0
753,0.030119999999999925,4.99972120164681,0.00013652655288240445,-0.00039982496051722794,0
754,0.030159999999999965,5.000049991798719,0.0004653163810297567,-0.0007318699592083252,0
755,0.030200000000000005,5.000049991798719,0.0004653163810297567,-0.000735124008330764,0
756,0.030240000000000045,4.99972120164681,-0.00019226327513760522,-8.07972653793928e-05,0
757,0.030280000000000085,5.000378781950543,0.00013652655288240445,-0.0004128388562083061,0
758,0.030319999999999903,5.000049991798719,-0.0005210531030302584,0.00024149020181860246,0
759,0.030359999999999943,5.000049991798719,-0.00019226327513760522,-9.054904450523597e-05,0
760,0.030399999999999983,4.99972120164681,0.00013652655288240445,-0.00042258709695516133,0
761,0.030440000000000023,5.000378781950543,0.00013652655288240445,-0.0004258341128218941,0
762,0.030480000000000063,4.99972120164681,0.00013652655288240445,-0.0004290799055483896,0
763,0.030520000000000103,5.000049991798719,0.0004653163810297567,-0.0007611142886898767,0
764,0.03055999999999992,5.000378781950543,0.0004653163810297567,-0.0007643575913445335,0
765,0.03059999999999996,4.999392411494816,0.0004653163810297567,-0.0007675996270376683,0
766,0.03064,5.000049991798719,-0.00019226327513760522,-0.00011326072496502249,0
767,0.03068000000000004,5.000049991798719,0.00013652655288240445,-0.0004452900108296524,0
768,0.03072000000000008,5.000049991798719,0.0004653163810297567,-0.000777317985905151,0
769,0.0307599999999999,4.99972120164681,0.0004653163810297567,-0.0007805548072358159,0
770,0.03079999999999994,5.000378781950543,0.00013652655288240445,-0.0004550004601260835,0
771,0.03083999999999998,5.000049991798719,-0.00019226327513760522,-0.00012944475814060237,0
772,0.03088000000000002,5.000378781950543,-0.0005210531030302584,0.0001961123134450675,0
773,0.03092000000000006,5.000378781950543,0.0007941062093044515,-0.001122278370730295,0
774,0.0309600000000001,5.000049991798719,0.0004653163810297567,-0.0007967185150768842,0
775,0.030999999999999917,5.000049991798719,-0.00019226327513760522,-0.0001423674175442146,0
776,0.031039999999999957,5.000049991798719,0.0007941062093044515,-0.0011319640318530424,0
777,0.031079999999999997,5.000378781950543,0.0004653163810297567,-0.0008063998898818409,0
778,0.031120000000000037,4.99972120164681,0.0007941062093044515,-0.0011384139460874345,0
779,0.031160000000000077,5.000049991798719,0.0004653163810297567,-0.0008128468725478507,0
780,0.031199999999999894,5.000049991798719,0.0004653163810297567,-0.0008160681392501751,0
781,0.031239999999999934,5.000049991798719,0.0004653163810297567,-0.0008192879030689928,0
782,0.031279999999999974,5.000378781950543,0.0004653163810297567,-0.0008225061491399366,0
783,0.031320000000000014,5.000378781950543,-0.00019226327513760522,-0.00016814320641770855,0
784,0.031360000000000054,5.000378781950543,-0.0008498429307955274,0.0004862212833123179,0
785,0.031400000000000095,5.000378781950543,-0.0008498429307955274,0.00048300767980649954,0
786,0.03143999999999991,4.999392411494816,-0.00019226327513760522,-0.0001777840020169927,0
787,0.03147999999999995,5.000049991798719,0.00013652655288240445,-0.0005097842639309007,0
788,0.03151999999999999,5.000378781950543,-0.0005210531030302584,0.00014458656530413525,0
789,0.03156000000000003,4.99972120164681,-0.0005210531030302584,0.00014137936080047735,0
790,0.03160000000000007,5.000049991798719,-0.00019226327513760522,-0.00019061603445115146,0
791,0.03164000000000011,4.99972120164681,0.00013652655288240445,-0.0005226097777018037,0
792,0.03167999999999993,5.000378781950543,-0.0005210531030302584,0.00013176763010505865,0
793,0.03171999999999997,4.999392411494816,0.00013652655288240445,-0.0005290125917792726,0
794,0.03176000000000001,5.000049991798719,-0.00019226327513760522,-0.00020342163257481595,0
795,0.03180000000000005,5.000049991798719,-0.00019226327513760522,-0.00020661878919965115,0
796,0.03184000000000009,4.99972120164681,-0.00019226327513760522,-0.00020981421858663182,0
797,0.03187999999999991,5.000378781950543,0.0004653163810297567,-0.0008705875618435291,0
798,0.03191999999999995,5.000049991798719,0.0007941062093044515,-0.0012025693198383532,0
799,0.03195999999999999,5.000049991798719,-0.0005210531030302584,0.00010939983522988435,0
800,0.03200000000000003,5.000049991798719,0.0004653163810297567,-0.0008801580185464847,0
801,0.03204000000000007,4.999063621342738,-0.00019226327513760522,-0.00022576492943677802,0
802,0.03208000000000011,5.000049991798719,0.00013652655288240445,-0.0005577395067351163,0
803,0.032119999999999926,5.000049991798719,0.00013652655288240445,-0.0005609224231015333,0
804,0.032159999999999966,5.000049991798719,0.00013652655288240445,-0.0005641034914115759,0
805,0.032200000000000006,4.99972120164681,0.0004653163810297567,-0.0008960725246563409,0
806,0.032240000000000046,5.000049991798719,0.0007941062093044515,-0.001228039679647856,0
807,0.032280000000000086,4.99972120164681,0.0007941062093044515,-0.0012312151128044976,0
808,0.032319999999999904,4.99972120164681,0.0004653163810297567,-0.0009055988089351405,0
809,0.032359999999999944,4.999392411494816,-0.0005210531030302584,7.759907467341948e-05,0
810,0.032399999999999984,4.99972120164681,-0.0008498429307955274,0.00040321924115506376,0
811,0.032440000000000024,5.000049991798719,0.00013652655288240445,-0.0005863179494134329,0
812,0.032480000000000064,5.000049991798719,0.00013652655288240445,-0.0005894836866745145,0
813,0.032520000000000104,5.000049991798719,0.0004653163810297567,-0.0009214372672059289,0
814,0.03255999999999992,4.99972120164681,-0.00019226327513760522,-0.00026701936328705133,0
815,0.03259999999999996,5.000049991798719,-0.00019226327513760522,-0.0002701791001304578,0
816,0.03264,5.000049991798719,0.00013652655288240445,-0.0006021266343084444,0
817,0.03268000000000004,5.000049991798719,0.0004653163810297567,-0.0009340721226372271,0
818,0.03272000000000008,5.000707572102282,0.0007941062093044515,-0.0012660155498150103,0
819,0.0327599999999999,5.000378781950543,0.0007941062093044515,-0.0012691670721273719,0
820,0.03279999999999994,5.000049991798719,0.0007941062093044515,-0.0012723165025261198,0
821,0.03283999999999998,4.999392411494816,0.0004653163810297567,-0.0009466739974032612,0
822,0.03288000000000002,4.99972120164681,0.0007941062093044515,-0.0012786090262392597,0
823,0.03292000000000006,4.99972120164681,-0.00019226327513760522,-0.00029538260441411984,0
824,0.0329600000000001,4.999392411494816,0.00013652655288240445,-0.0006273133417426559,0
825,0.03299999999999992,5.000049991798719,0.00013652655288240445,-0.0006304520823687333,0
826,0.03303999999999996,4.99972120164681,0.00013652655288240445,-0.000633588638928335,0
827,0.03308,4.99972120164681,0.00013652655288240445,-0.0006367229960275564,0
828,0.03312000000000004,5.000049991798719,-0.0005210531030302584,1.772451764995767e-05,0
829,0.03316000000000008,5.000378781950543,0.00013652655288240445,-0.0006429850502203899,0
830,0.033199999999999896,5.000049991798719,0.0004653163810297567,-0.0009749025446249677,0
831,0.033239999999999936,5.000049991798719,0.001780475694892425,-0.0022931872636118896,0
832,0.033279999999999976,5.000378781950543,0.0004653163810297567,-0.0009811510782985712,0
833,0.033320000000000016,5.000707572102282,0.0004653163810297567,-0.0009842719148217432,0
834,0.033360000000000056,5.000049991798719,-0.00019226327513760522,-0.0003298107876908657,0
835,0.033400000000000096,5.000049991798719,0.0007941062093044515,-0.0013192964782130568,0
836,0.033439999999999914,5.000049991798719,0.001122896037706475,-0.0016512001742601482,0
837,0.033479999999999954,5.000049991798719,0.00013652655288240445,-0.0006679422031583965,0
838,0.033519999999999994,5.000378781950543,0.00013652655288240445,-0.0006710513474614097,0
839,0.033560000000000034,4.99972120164681,0.0007941062093044515,-0.0013317377632618293,0
840,0.033600000000000074,5.000378781950543,0.001122896037706475,-0.001663631950603564,0
841,0.033640000000000114,5.000049991798719,0.0004653163810297567,-0.0010091542369052822,0
842,0.03367999999999993,5.000049991798719,0.0004653163810297567,-0.00101225374839133,0
843,0.03371999999999997,5.000049991798719,0.0014516858662357995,-0.002001720298051511,0
844,0.03376000000000001,4.99972120164681,0.0014516858662357995,-0.0020048148999259035,0
845,0.03380000000000005,4.99972120164681,0.0007941062093044515,-0.0013503273667331448,0
846,0.03384000000000009,5.000049991798719,0.0007941062093044515,-0.001353416996771746,0
847,0.03387999999999991,4.99972120164681,0.0014516858662357995,-0.0020140837744694893,0
848,0.03391999999999995,5.000049991798719,0.0007941062093044515,-0.0013595887134521766,0
849,0.03395999999999999,5.000049991798719,0.0007941062093044515,-0.001362670768925858,0
850,0.03400000000000003,5.000378781950543,0.00013652655288240445,-0.0007081706119414018,0
851,0.03404000000000007,4.99972120164681,0.0024380553525874815,-0.0030127763394445927,0
852,0.03408000000000011,5.000049991798719,0.0007941062093044515,-0.00137190153670927,0
853,0.03411999999999993,4.99972120164681,0.0007941062093044515,-0.0013749732743881778,0
854,0.03415999999999997,5.000378781950543,0.0024380553525874815,-0.0030219915368555708,0
855,0.03420000000000001,5.000049991798719,0.00013652655288240445,-0.000723529222207311,0
856,0.03424000000000005,5.001036362253937,0.0004653163810297567,-0.0010553828856437637,0
857,0.03428000000000009,5.000378781950543,0.0024380553525874815,-0.0030311830270756458,0
858,0.034319999999999906,5.000378781950543,0.0014516858662357995,-0.002047872029528986,0
859,0.034359999999999946,5.000049991798719,0.001122896037706475,-0.0017221379930744852,0
860,0.034399999999999986,5.000049991798719,0.0004653163810297567,-0.0010676114160745615,0
861,0.034440000000000026,5.000707572102282,0.001780475694892425,-0.0023858210815414964,0
862,0.034480000000000066,5.000378781950543,0.001122896037706475,-0.0017312890322062245,0
863,0.034520000000000106,5.000049991798719,0.001122896037706475,-0.0017343338806157763,0
864,0.034559999999999924,5.000049991798719,0.0007941062093044515,-0.001408586125488276,0
865,0.034599999999999964,4.99972120164681,0.001122896037706475,-0.0017404152363296242,0
866,0.034640000000000004,4.99972120164681,0.0007941062093044515,-0.001414661883825389,0
867,0.034680000000000044,5.000049991798719,0.001780475694892425,-0.002404065023057206,0
868,0.034720000000000084,5.000049991798719,0.0007941062093044515,-0.0014207263531407586,0
869,0.0347599999999999,4.99972120164681,0.0004653163810297567,-0.001094964486841025,0
870,0.03479999999999994,4.99972120164681,0.001122896037706475,-0.0017555692360661259,0
871,0.03483999999999998,5.000049991798719,0.001780475694892425,-0.002416171100638201,0
872,0.03488000000000002,5.000378781950543,0.0007941062093044515,-0.0014328209215328533,0
873,0.03492000000000006,5.000049991798719,0.0014516858662357995,-0.002093416968296613,0
874,0.0349600000000001,5.000378781950543,0.0007941062093044515,-0.0014388507687953887,0
875,0.03499999999999992,4.999392411494816,0.0007941062093044515,-0.0014418612780658833,0
876,0.03503999999999996,5.000049991798719,0.0014516858662357995,-0.002102448480345593,0
877,0.03508,5.000049991798719,0.001122896037706475,-0.00177666321747493,0
878,0.03512000000000004,5.000049991798719,0.0021092655236763236,-0.002766034273641209,0
879,0.03516000000000008,5.000049991798719,0.001780475694892425,-0.0024402430038141243,0
880,0.0351999999999999,5.000378781950543,0.0004653163810297567,-0.0011280792218865052,0
881,0.03523999999999994,5.000378781950543,0.001780475694892425,-0.002446231024875645,0
882,0.03527999999999998,5.000378781950543,0.0014516858662357995,-0.0021204306267455517,0
883,0.03532000000000002,5.000378781950543,0.0007941062093044515,-0.0014658373259449765,0
884,0.03536000000000006,5.000049991798719,0.0014516858662357995,-0.0021264002488111697,0
885,0.0354000000000001,4.99972120164681,0.0024380553525874815,-0.003115749895097359,0
886,0.035439999999999916,4.99972120164681,0.0007941062093044515,-0.0014747777899399516,0
887,0.035479999999999956,5.000378781950543,0.001122896037706475,-0.0018065415188461213,0
888,0.035519999999999996,5.000378781950543,0.0021092655236763236,-0.0027958817518821226,0
889,0.035560000000000036,5.000707572102282,0.00013652655288240445,-0.0008261103588960235,0
890,0.035600000000000076,4.999392411494816,0.0027668451816259126,-0.0034593933803649534,0
891,0.035639999999999894,5.002022732708393,-0.001178632758433426,0.00048312336787902717,0
892,0.035679999999999934,4.99972120164681,0.001780475694892425,-0.002478943060520931,0
893,0.035719999999999974,5.000049991798719,0.001122896037706475,-0.0018243181458332655,0
894,0.035760000000000014,5.000049991798719,0.005725953648695714,-0.006430327250907085,0
895,0.035800000000000054,4.999392411494816,-0.0018362124133269458,0.0011288905812857544,0
896,0.035840000000000094,5.001693942556992,-0.0005210531030302584,-0.00018921367874182233,0
897,0.03587999999999991,5.001365152405508,0.001780475694892425,-0.0024936841304493305,0
898,0.03591999999999995,4.998077250885994,-0.0024937920677107622,0.0017776452901651029,0
899,0.03595999999999999,5.003337893313145,0.00013652655288240445,-0.0008556083447679552,0
900,0.03600000000000003,5.000378781950543,0.0004653163810297567,-0.0011873298437509025,0
901,0.03604000000000007,4.999063621342738,0.001122896037706475,-0.0018478378119009273,0
902,0.03608000000000011,4.99972120164681,0.0014516858662357995,-0.002179552576680837,0
903,0.03611999999999993,4.99972120164681,0.0024380553525874815,-0.0031688436081976127,0
904,0.03615999999999997,5.000378781950543,0.001122896037706475,-0.001856602431531211,0
905,0.03620000000000001,4.99972120164681,0.0021092655236763236,-0.002845886632898054,0
906,0.03624000000000005,5.000378781950543,0.0014516858662357995,-0.0021912182521677892,0
907,0.03628000000000009,5.000378781950543,0.0007941062093044515,-0.001536546417388936,0
908,0.03631999999999991,5.000049991798719,0.0014516858662357995,-0.0021970304260421907,0
909,0.03635999999999995,4.999392411494816,0.0007941062093044515,-0.0015423516345276563,0
910,0.03639999999999999,5.000049991798719,0.0004653163810297567,-0.0012164591694886016,0
911,0.03644000000000003,5.000707572102282,0.001780475694892425,-0.0025345123285281943,0
912,0.03648000000000007,5.000049991798719,0.0021092655236763236,-0.002866192468551413,0
913,0.03652000000000011,4.999392411494816,0.001122896037706475,-0.0018827097440031475,0
914,0.036559999999999926,4.99972120164681,0.001780475694892425,-0.0025431725969116796,0
915,0.036599999999999966,5.000049991798719,0.001122896037706475,-0.0018884725538670316,0
916,0.036640000000000006,5.000707572102282,0.001780475694892425,-0.0025489282277298122,0
917,0.036680000000000046,5.000049991798719,0.0014516858662357995,-0.002223010802401566,0
918,0.036720000000000086,5.000049991798719,0.0007941062093044515,-0.001568299919565483,0
919,0.036759999999999904,5.000378781950543,0.0027668451816259126,-0.0035439040208638654,0
920,0.036799999999999944,5.000378781950543,0.0021092655236763236,-0.002889185830887175,0
921,0.036839999999999984,5.000049991798719,0.001780475694892425,-0.00256325379318613,0
922,0.036880000000000024,5.000049991798719,0.0021092655236763236,-0.002894897720276589,0
923,0.036920000000000064,5.000707572102282,0.0014516858662357995,-0.0022401684524799644,0
924,0.036960000000000104,5.000049991798719,0.0014516858662357995,-0.0022430151175748315,0
925,0.03699999999999992,5.000378781950543,0.001780475694892425,-0.0025746478708910314,0
926,0.03703999999999996,5.000378781950543,0.0007941062093044515,-0.001591117553641302,0
927,0.03708,4.99972120164681,0.0014516858662357995,-0.0022515326067038574,0
928,0.03712000000000004,5.000049991798719,0.0024380553525874815,-0.0032407337010944576,0
929,0.03716000000000008,5.000049991798719,0.0021092655236763236,-0.0029147716762452395,0
930,0.0371999999999999,5.000378781950543,0.0027668451816259126,-0.003575175318395782,0
931,0.03723999999999994,5.000049991798719,0.0024380553525874815,-0.0032492056378141065,0
932,0.03727999999999998,5.000049991798719,0.0021092655236763236,-0.002923232105733202,0
933,0.03732000000000002,5.000378781950543,0.0021092655236763236,-0.0029260445350556743,0
934,0.03736000000000006,5.000049991798719,0.001122896037706475,-0.001942483595020383,0
935,0.0374000000000001,5.000378781950543,0.0024380553525874815,-0.003260447556569158,0
936,0.03743999999999992,5.000378781950543,0.0014516858662357995,-0.0022768788017409635,0
937,0.03747999999999996,5.000707572102282,0.00013652655288240445,-0.0009645162888907683,0
938,0.03752,5.000378781950543,0.001780475694892425,-0.002611258284509302,0
939,0.03756000000000004,5.000378781950543,0.0007941062093044515,-0.0016276776897624886,0
940,0.03760000000000008,5.000049991798719,0.0014516858662357995,-0.0022880422588968117,0
941,0.037639999999999896,5.000049991798719,0.0021092655236763236,-0.0029484028340332597,0
942,0.037679999999999936,5.000049991798719,0.0021092655236763236,-0.0029511797413553434,0
943,0.037719999999999976,4.999392411494816,0.0021092655236763236,-0.0029539526224389894,0
944,0.037760000000000016,5.000049991798719,0.0024380553525874815,-0.003285511290333069,0
945,0.037800000000000056,5.000378781950543,0.001780475694892425,-0.002630696413660351,0
946,0.037840000000000096,5.000707572102282,0.0021092655236763236,-0.002962246949648694,0
947,0.037879999999999914,5.000049991798719,0.0014516858662357995,-0.0023074239097400757,0
948,0.037919999999999954,4.99972120164681,0.0014516858662357995,-0.002310176421747584,0
949,0.037959999999999994,5.000049991798719,0.0014516858662357995,-0.002312924812381741,0
950,0.038000000000000034,5.000378781950543,0.0014516858662357995,-0.0023156690657966162,0
951,0.038040000000000074,5.000049991798719,0.0014516858662357995,-0.0023184091661494206,0
952,0.038080000000000114,5.000378781950543,0.001122896037706475,-0.0019923552690713025,0
953,0.03811999999999993,5.000707572102282,0.001122896037706475,-0.0019950870157847645,0
954,0.03815999999999997,4.99972120164681,0.001780475694892425,-0.0026553942191137876,0
955,0.03820000000000001,5.000378781950543,0.001780475694892425,-0.002658117548857448,0
956,0.03824000000000005,4.99972120164681,0.0014516858662357995,-0.002332046817719783,0
957,0.03828000000000009,4.99972120164681,0.001780475694892425,-0.002663551495849237,0
958,0.03831999999999991,4.99972120164681,0.001780475694892425,-0.0026662620814584797,0
959,0.03835999999999995,5.000049991798719,0.0030956350107915753,-0.003984127703289929,0
960,0.03839999999999999,5.000378781950543,0.0027668451816259126,-0.0036580398845704864,0
961,0.03844000000000003,5.000707572102282,0.0014516858662357995,-0.0023455782683357153,0
962,0.03848000000000007,4.99972120164681,0.0024380553525874815,-0.00333464112675153,0
963,0.03852000000000011,5.000049991798719,0.001780475694892425,-0.0026797504982336577,0
964,0.03855999999999993,5.000049991798719,0.001122896037706475,-0.002024855511546909,0
965,0.03859999999999997,4.99972120164681,0.0021092655236763236,-0.0030139052935517696,0
966,0.03864000000000001,5.000378781950543,0.0007941062093044515,-0.0017014218849694712,0
967,0.03868000000000005,5.000049991798719,0.0027668451816259126,-0.0036768323570588865,0
968,0.03872000000000009,5.000378781950543,0.0014516858662357995,-0.0023643401196441305,0
969,0.038759999999999906,4.99972120164681,0.001780475694892425,-0.0026957925887178534,0
970,0.038799999999999946,5.000378781950543,0.0027668451816259126,-0.0036848202625499654,0
971,0.038839999999999986,5.000378781950543,0.0021092655236763236,-0.003029894322625876,0
972,0.038880000000000026,4.99972120164681,0.001780475694892425,-0.0027037537270453832,0
973,0.038920000000000066,4.99972120164681,0.0024380553525874815,-0.003363978117378589,0
974,0.038960000000000106,5.000049991798719,0.0024380553525874815,-0.003366618333714245,0
975,0.038999999999999924,5.000049991798719,0.0024380553525874815,-0.0033692540180162156,0
976,0.039039999999999964,5.000378781950543,0.0021092655236763236,-0.0030430953256483243,0
977,0.039080000000000004,5.000378781950543,0.001780475694892425,-0.002716932069930268,0
978,0.039120000000000044,5.000049991798719,0.0024380553525874815,-0.003377133721501443,0
979,0.039160000000000084,5.000049991798719,0.0024380553525874815,-0.0033797511204820803,0
980,0.0391999999999999,5.000049991798719,0.0014516858662357995,-0.0023959944225164617,0
981,0.03923999999999994,5.000378781950543,0.0024380553525874815,-0.00338497207096733,0
982,0.03927999999999998,5.000378781950543,0.001780475694892425,-0.0027299959333991985,0
983,0.03932000000000002,5.000378781950543,0.0027668451816259126,-0.003718964282609001,0
984,0.03936000000000006,5.000378781950543,0.001780475694892425,-0.0027351889850300323,0
985,0.0394000000000001,5.000049991798719,0.0030956350107915753,-0.004052937801098003,0
986,0.03943999999999992,5.000378781950543,0.0027668451816259126,-0.0037267327674589718,0
987,0.03947999999999996,4.999392411494816,0.0024380553525874815,-0.003400523013656014,0
988,0.03952,5.000378781950543,0.0021092655236763236,-0.003074308524047854,0
989,0.03956000000000004,5.000049991798719,0.0021092655236763236,-0.0030768791117848295,0
990,0.03960000000000008,5.000378781950543,0.0021092655236763236,-0.0030794449323301287,0
991,0.0396399999999999,4.99972120164681,0.001780475694892425,-0.0027532161412822144,0
992,0.03967999999999994,5.000378781950543,0.0024380553525874815,-0.0034133520382944446,0
993,0.03971999999999998,5.000378781950543,0.0021092655236763236,-0.003087113634680423,0
994,0.03976000000000002,4.99972120164681,0.0024380553525874815,-0.003418450059275846,0
995,0.03980000000000006,5.000378781950543,0.0021092655236763236,-0.0030922019808517637,0
996,0.0398400000000001,5.000378781950543,0.0021092655236763236,-0.0030947388705659684,0
997,0.039879999999999916,4.99972120164681,0.0030956350107915753,-0.004083640371055638,0
998,0.039919999999999956,5.000378781950543,0.0027668451816259126,-0.003757377663366585,0
999,0.039959999999999996,5.000378781950543,0.0014516858662357995,-0.0024447405620062626,0
1000,0.040000000000000036,5.000049991798719,0.0027668451816259126,-0.0037624171684394764,0
1001,0.040040000000000076,5.000049991798719,0.0030956350107915753,-0.004093719350130949,0
1002,0.040080000000000116,4.99972120164681,0.003753214669504526,-0.00475380640733121,0
1003,0.040119999999999933,4.99972120164681,0.0024380553525874815,-0.003441149519351284,0
1004,0.040159999999999973,4.99972120164681,0.0024380553525874815,-0.003443646963236158,0
1005,0.040200000000000014,5.000378781950543,0.001780475694892425,-0.0027885597488814607,0
1006,0.040240000000000054,5.000049991798719,0.0024380553525874815,-0.0034486268338900063,0
1007,0.040280000000000094,4.99972120164681,0.001122896037706475,-0.0021359499148233016,0
1008,0.04031999999999991,5.000049991798719,0.001780475694892425,-0.0027960069208622135,0
1009,0.04035999999999995,5.000707572102282,0.0014516858662357995,-0.0024696893786453553,0
1010,0.04039999999999999,5.000378781950543,0.0024380553525874815,-0.003458526073582167,0
1011,0.04044000000000003,4.999392411494816,0.0027668451816259126,-0.0037897780179201937,0
1012,0.04048000000000007,5.000049991798719,0.0024380553525874815,-0.003463445195475595,0
1013,0.04052000000000011,5.000378781950543,0.0024380553525874815,-0.0034658970779542324,0
1014,0.04055999999999993,5.000049991798719,0.001780475694892425,-0.0028107641632241125,0
1015,0.04059999999999997,5.000378781950543,0.0014516858662357995,-0.002484415922631271,0
1016,0.04064000000000001,5.000378781950543,0.001780475694892425,-0.002815642169074262,0
1017,0.04068000000000005,4.999392411494816,0.0021092655236763236,-0.003146863230002162,0
1018,0.04072000000000009,5.000049991798719,0.001780475694892425,-0.0028204994323663963,0
1019,0.04075999999999991,5.000049991798719,0.0021092655236763236,-0.0031517100759606235,0
1020,0.04079999999999995,5.000049991798719,0.0007941062093044515,-0.0018389663447310372,0
1021,0.04083999999999999,4.999392411494816,0.0021092655236763236,-0.003156535995258739,0
1022,0.04088000000000003,5.000049991798719,0.0021092655236763236,-0.0031589410691216617,0
1023,0.04092000000000007,5.000049991798719,0.0014516858662357995,-0.002503761207956788,0
1024,0.04096000000000011,5.000049991798719,0.0024380553525874815,-0.0034925251977147003,0
1025,0.040999999999999925,4.99972120164681,0.001780475694892425,-0.0028373347352866553,0
1026,0.041039999999999965,5.000049991798719,0.0021092655236763236,-0.003168508435941019,0
1027,0.041080000000000005,5.000378781950543,0.0027668451816259126,-0.0038284666271198005,0
1028,0.041120000000000045,5.000378781950543,0.0021092655236763236,-0.003173260148526139,0
1029,0.041160000000000085,5.000049991798719,0.0027668451816259126,-0.0038332076167392564,0
1030,0.0411999999999999,5.000049991798719,0.0021092655236763236,-0.0031779903847546534,0
1031,0.04123999999999994,4.999063621342738,0.001780475694892425,-0.0028515575824441695,0
1032,0.04127999999999998,4.99972120164681,0.0014516858662357995,-0.0025251193655896065,0
1033,0.04132000000000002,5.000378781950543,0.001780475694892425,-0.002856255376210534,0
1034,0.04136000000000006,5.000378781950543,0.0021092655236763236,-0.003187385941968075,0
1035,0.0414000000000001,5.000378781950543,0.0014516858662357995,-0.0025321415613712697,0
1036,0.04143999999999992,5.000378781950543,0.001122896037706475,-0.0022056815344302367,0
1037,0.04147999999999996,5.000049991798719,0.0014516858662357995,-0.0025367956741808154,0
1038,0.04152,5.000378781950543,0.001780475694892425,-0.002867904308594071,0
1039,0.04156000000000004,5.000378781950543,0.0014516858662357995,-0.002541427765146019,0
1040,0.04160000000000008,5.000707572102282,0.0024380553525874815,-0.0035301050010890654,0
1041,0.0416399999999999,5.000378781950543,0.0004653163810297567,-0.0015596682284507626,0
1042,0.04167999999999994,5.000049991798719,0.0014516858662357995,-0.002548334346864096,0
1043,0.04171999999999998,5.000049991798719,0.0021092655236763236,-0.0032082050567742736,0
1044,0.04176000000000002,5.000378781950543,0.0021092655236763236,-0.003210490513495592,0
1045,0.04180000000000006,4.99972120164681,0.0007941062093044515,-0.001897611045100944,0
1046,0.0418400000000001,5.000049991798719,0.001122896037706475,-0.00222867509375541,0
1047,0.04187999999999992,5.000049991798719,0.00013652655288240445,-0.0012445741884935194,0
1048,0.04191999999999996,4.99972120164681,0.0014516858662357995,-0.002561996425768681,0
1049,0.04196,5.000378781950543,0.0007941062093044515,-0.0019066740221840024,0
1050,0.04200000000000004,5.000049991798719,0.001122896037706475,-0.0022377154184385047,0
1051,0.04204000000000008,4.99972120164681,0.001122896037706475,-0.002239961285893426,0
1052,0.042079999999999895,5.000049991798719,0.0014516858662357995,-0.0025709912665926008,0
1053,0.042119999999999935,5.000049991798719,0.0004653163810297567,-0.0015868562033998083,0
1054,0.042159999999999975,5.000378781950543,0.0007941062093044515,-0.0019178747086757394,0
1055,0.042200000000000015,5.000049991798719,0.001122896037706475,-0.002248887454227819,0
1056,0.042240000000000055,4.99972120164681,0.0007941062093044515,-0.0019223147683018825,0
1057,0.042280000000000095,5.000049991798719,0.0007941062093044515,-0.001924526121297716,0
1058,0.04231999999999991,5.000049991798719,0.0007941062093044515,-0.001926731670023652,0
1059,0.04235999999999995,5.001036362253937,0.0014516858662357995,-0.0025865110566381665,0
1060,0.04239999999999999,5.000378781950543,0.0004653163810297567,-0.0016023354673165501,0
1061,0.04244000000000003,4.999063621342738,-0.0005210531030302584,-0.0006181540306032822,0
1062,0.04248000000000007,4.999392411494816,0.001780475694892425,-0.002921865012613264,0
1063,0.04252000000000011,5.000378781950543,-0.001178632758433426,3.5067134589198464e-05,0
1064,0.04255999999999993,4.999392411494816,-0.00019226327513760522,-0.0009534727621790611,0
1065,0.04259999999999997,5.000707572102282,0.001122896037706475,-0.0022707965811751686,0
1066,0.04264000000000001,5.001036362253937,0.0004653163810297567,-0.0016153755086783055,0
1067,0.04268000000000005,5.000378781950543,0.0007941062093044515,-0.00194631798452675,0
1068,0.04272000000000009,5.000049991798719,0.0004653163810297567,-0.0016196748526037326,0
1069,0.04275999999999991,5.000049991798719,0.0004653163810297567,-0.0016218155831354672,0
1070,0.04279999999999995,5.000049991798719,0.001122896037706475,-0.0022815299899443366,0
1071,0.04283999999999999,5.000049991798719,0.0007941062093044515,-0.0019548689167136063,0
1072,0.04288000000000003,5.000378781950543,0.00013652655288240445,-0.0012994120059592147,0
1073,0.04292000000000007,5.000049991798719,0.001122896037706475,-0.0022878982124231546,0
1074,0.04296000000000011,5.000049991798719,-0.00019226327513760522,-0.0009748495826857819,0
1075,0.04299999999999993,4.99972120164681,0.00013652655288240445,-0.0013057440407928528,0
1076,0.04303999999999997,5.000049991798719,-0.00019226327513760522,-0.000979052775372807,0
1077,0.04308000000000001,5.000378781950543,-0.00019226327513760522,-0.000981145256037375,0
1078,0.04312000000000005,4.99972120164681,0.00013652655288240445,-0.0013120214683575476,0
1079,0.04316000000000009,4.999392411494816,0.00013652655288240445,-0.0013141017418837123,0
1080,0.043199999999999905,4.99972120164681,-0.0005210531030302584,-0.0006585962343331701,0
1081,0.043239999999999945,5.000049991798719,0.00013652655288240445,-0.0013182438990735471,0
1082,0.043279999999999985,4.99972120164681,-0.00019226327513760522,-0.0009915159259963019,0
1083,0.043320000000000025,5.000378781950543,0.001122896037706475,-0.0023087309255675984,0
1084,0.043360000000000065,5.000049991798719,-0.00019226327513760522,-0.0009956211169246717,0
1085,0.043400000000000105,5.000049991798719,0.00013652655288240445,-0.001326454252329468,0
1086,0.04343999999999992,5.000049991798719,0.0004653163810297567,-0.0016572811767752893,0
1087,0.04347999999999996,5.000707572102282,0.00013652655288240445,-0.0013305222195906133,0
1088,0.04352,5.000049991798719,-0.0005210531030302584,-0.0006749671950759726,0
1089,0.04356000000000004,4.99972120164681,0.00013652655288240445,-0.0013345652286138915,0
1090,0.04360000000000008,5.000049991798719,0.001122896037706475,-0.0023229468231032273,0
1091,0.0436399999999999,5.000049991798719,0.0004653163810297567,-0.0016673729939655764,0
1092,0.04367999999999994,5.000049991798719,-0.00019226327513760522,-0.0010117928690660197,0
1093,0.04371999999999998,5.000049991798719,-0.00019226327513760522,-0.0010137860899387817,0
1094,0.04376000000000002,4.99972120164681,0.0014516858662357995,-0.0026597221276875374,0
1095,0.04380000000000006,5.000707572102282,0.001122896037706475,-0.002332912856955336,0
1096,0.0438400000000001,5.000378781950543,-0.0008498429307955274,-0.00036214809361308524,0
1097,0.04387999999999992,5.000707572102282,-0.002165002240582567,0.0009510433776889109,0
1098,0.04391999999999996,5.000707572102282,0.0007941062093044515,-0.002010026529993052,0
1099,0.04396,4.998734831190575,-0.0008498429307955274,-0.00036803245300461333,0
1100,0.04400000000000004,5.000378781950543,-0.00019226327513760522,-0.0010275607631195617,0
1101,0.04404000000000008,4.999063621342738,-0.0005210531030302584,-0.0007007131670806596,0
1102,0.0440799999999999,5.001693942556992,0.0007941062093044515,-0.0020178082747395526,0
1103,0.04411999999999994,5.000049991798719,-0.0005210531030302584,-0.0007045783072957721,0
1104,0.04415999999999998,4.99972120164681,0.0021092655236763236,-0.0033368198145790695,0
1105,0.04420000000000002,5.000049991798719,0.001122896037706475,-0.002352366731013641,0
1106,0.04424000000000006,5.000707572102282,-0.0005210531030302584,-0.0007103275006739452,0
1107,0.0442800000000001,5.000707572102282,-0.001178632758433426,-5.465124984847759e-05,0
1108,0.044319999999999915,5.001693942556992,-0.0008498429307955274,-0.00038533796245604794,0
1109,0.044359999999999955,5.002351522859708,0.00013652655288240445,-0.0013735977977303295,0
1110,0.044399999999999995,5.000378781950543,-0.0005210531030302584,-0.0007179019462989337,0
1111,0.044440000000000035,5.000707572102282,0.00013652655288240445,-0.0013773588458596809,0
1112,0.044480000000000075,5.000049991798719,-0.0015074225859438989,0.0002647196238460205,0
1113,0.044520000000000115,4.99972120164681,0.0007941062093044515,-0.0020386732523250796,0
1114,0.04455999999999993,5.000378781950543,-0.0005210531030302584,-0.0007253714190689721,0
1115,0.04459999999999997,5.000707572102282,-0.0005210531030302584,-0.0007272222826813246,0
1116,0.04464000000000001,4.99972120164681,-0.0008498429307955274,-0.0004002766894643929,0
1117,0.04468000000000005,5.000049991798719,-0.0005210531030302584,-0.0007309041091406849,0
1118,0.04472000000000009,4.99972120164681,-0.00019226327513760522,-0.0010615248727583499,0
1119,0.04475999999999991,5.000707572102282,-0.00019226327513760522,-0.001063349138773392,0
1120,0.04479999999999995,5.000378781950543,-0.0005210531030302584,-0.0007363768936867248,0
1121,0.04483999999999999,5.000049991798719,-0.0005210531030302584,-0.0007381877798095749,0
1122,0.04488000000000003,5.000049991798719,-0.001178632758433426,-8.241230039718198e-05,0
1123,0.04492000000000007,5.000049991798719,-0.0015074225859438989,0.0002445800746782565,0
1124,0.04496000000000011,5.000049991798719,0.00013652655288240445,-0.0014011597796290817,0
1125,0.04499999999999993,4.999392411494816,-0.0015074225859438989,0.00024100539404290147,0
1126,0.04503999999999997,4.99972120164681,-0.0008498429307955274,-0.00041835146258602197,0
1127,0.04508000000000001,4.99972120164681,-0.0005210531030302584,-0.0007489117148368322,0
1128,0.04512000000000005,5.000049991798719,-0.0008498429307955274,-0.00042188552126678613,0
1129,0.04516000000000009,5.000378781950543,-0.0005210531030302584,-0.0007524321796677238,0
1130,0.04519999999999991,5.000049991798719,-0.001178632758433426,-9.660253809764272e-05,0
1131,0.04523999999999995,5.000049991798719,-0.0015074225859438989,0.00023044410559901326,0
1132,0.04527999999999999,5.000049991798719,-0.0018362124133269458,0.0005574975923777238,0
1133,0.04532000000000003,4.99972120164681,-0.0008498429307955274,-0.00043060137438495584,0
1134,0.04536000000000007,5.000378781950543,-0.0015074225859438989,0.00022525566604207495,0
1135,0.04540000000000011,5.000049991798719,-0.00019226327513760522,-0.001091619376865675,0
1136,0.045439999999999925,5.000378781950543,-0.00019226327513760522,-0.0010933282132643094,0
1137,0.045479999999999965,5.000049991798719,0.0004653163810297567,-0.0017526097970716956,0
1138,0.045520000000000005,5.000378781950543,-0.0008498429307955274,-0.00043914549109932456,0
1139,0.045560000000000045,5.000378781950543,-0.0005210531030302584,-0.0007696233899293064,0
1140,0.045600000000000085,4.99972120164681,-0.0005210531030302584,-0.0007713045132322787,0
1141,0.0456399999999999,4.99972120164681,-0.0008498429307955274,-0.0004441888480623858,0
1142,0.04567999999999994,5.000378781950543,-0.0008498429307955274,-0.0004458560370321288,0
1143,0.04571999999999998,5.000049991798719,-0.001178632758433426,-0.00011872641184825774,0
1144,0.04576000000000002,5.000049991798719,-0.001178632758433426,-0.00012037961492457425,0
1145,0.04580000000000006,5.000049991798719,-0.0018362124133269458,0.0005355538491041154,0
1146,0.0458400000000001,4.999063621342738,-0.0018362124133269458,0.0005339146832561903,0
1147,0.04587999999999992,5.000378781950543,-0.0018362124133269458,0.0005322825552021015,0
1148,0.04591999999999996,5.000707572102282,-0.0008498429307955274,-0.0004557120048412568,0
1149,0.04596,5.000378781950543,-0.0008498429307955274,-0.00045733001909149936,0
1150,0.04600000000000004,5.000378781950543,-0.001178632758433426,-0.0001301511297514893,0
1151,0.04604000000000008,5.000049991798719,-0.0008498429307955274,-0.0004605448070732947,0
1152,0.0460799999999999,5.000378781950543,-0.0008498429307955274,-0.00046214155551075253,0
1153,0.04611999999999994,4.99972120164681,-0.0008498429307955274,-0.0004637311900985894,0
1154,0.04615999999999998,5.000049991798719,-0.0008498429307955274,-0.00046531369826305867,0
1155,0.04620000000000002,5.000707572102282,-0.0005210531030302584,-0.0007956788952252418,0
1156,0.04624000000000006,5.000378781950543,-0.0008498429307955274,-0.00046845728517483625,0
1157,0.0462800000000001,5.000049991798719,-0.0005210531030302584,-0.0007988081666882461,0
1158,0.04631999999999992,5.000049991798719,-0.0008498429307955274,-0.0004715722162496796,0
1159,0.04635999999999996,5.000049991798719,-0.0005210531030302584,-0.0008019087324955794,0
1160,0.0464,5.000378781950543,-0.00019226327513760522,-0.0011322380476283768,0
1161,0.04644000000000004,5.000049991798719,-0.0015074225859438989,0.00018138898954232112,0
1162,0.04648000000000008,5.000378781950543,-0.0005210531030302584,-0.0008065055410687854,0
1163,0.046519999999999895,5.000049991798719,-0.001178632758433426,-0.00015044369512199392,0
1164,0.046559999999999935,4.99972120164681,-0.0005210531030302584,-0.0008095339094682285,0
1165,0.046599999999999975,5.000378781950543,-0.0005210531030302584,-0.0008110372056566416,0
1166,0.046640000000000015,5.000707572102282,-0.0008498429307955274,-0.00048374339911478703,0
1167,0.046680000000000055,5.000378781950543,-0.00019226327513760522,-0.0011428117888519142,0
1168,0.046720000000000095,5.000049991798719,-0.001178632758433426,-0.00015792374034314608,0
1169,0.04675999999999991,5.000378781950543,-0.0015074225859438989,0.00016939196378897535,0
1170,0.04679999999999995,5.000378781950543,-0.0005210531030302584,-0.0008184443190092931,0
1171,0.04683999999999999,5.000707572102282,-0.0015074225859438989,0.00016646569956680658,0
1172,0.04688000000000003,5.000378781950543,-0.0005210531030302584,-0.0008213559001157026,0
1173,0.04692000000000007,5.000049991798719,-0.001178632758433426,-0.00016522100192306642,0
1174,0.04696000000000011,5.000049991798719,-0.001178632758433426,-0.00016665838761763642,0
1175,0.04699999999999993,4.999392411494816,0.00013652655288240445,-0.001483247701186631,0
1176,0.04703999999999997,5.000049991798719,-0.0005210531030302584,-0.0008270906521925907,0
1177,0.04708000000000001,5.000378781950543,-0.0008498429307955274,-0.0004997160241507058,0
1178,0.04712000000000005,5.000378781950543,-0.001178632758433426,-0.00017233397721282996,0
1179,0.04716000000000009,5.000049991798719,-0.0008498429307955274,-0.0005025241547319708,0
1180,0.04719999999999991,5.000049991798719,-0.0005210531030302584,-0.0008327068897971115,0
1181,0.04723999999999995,5.000378781950543,-0.0008498429307955274,-0.0005053025150207168,0
1182,0.04727999999999999,5.000378781950543,-0.0018362124133269458,0.0004796889805293611,0
1183,0.04732000000000003,5.000049991798719,-0.00019226327513760522,-0.0011656306669704684,0
1184,0.04736000000000007,5.000378781950543,-0.0018362124133269458,0.0004769554512091944,0
1185,0.04740000000000011,5.000378781950543,-0.0018362124133269458,0.00047559993209681396,0
1186,0.04743999999999993,5.000378781950543,-0.0005210531030302584,-0.000840907384852085,0
1187,0.04747999999999997,5.000707572102282,-0.001178632758433426,-0.0001846682121118342,0
1188,0.04752000000000001,4.99972120164681,-0.0008498429307955274,-0.0005147909869280996,0
1189,0.04756000000000005,5.000378781950543,-0.001178632758433426,-0.0001873265595227693,0
1190,0.04760000000000009,5.000378781950543,-0.0015074225859438989,0.00014014542612804945,0
1191,0.047639999999999905,5.000707572102282,-0.0005210531030302584,-0.0008475343288794784,0
1192,0.047679999999999945,5.000049991798719,-0.0008498429307955274,-0.0005200471920838706,0
1193,0.047719999999999985,5.000049991798719,-0.001178632758433426,-0.00019255246296746354,0
1194,0.047760000000000025,5.000049991798719,-0.00019226327513760522,-0.001180209441047316,0
1195,0.047800000000000065,5.000049991798719,-0.0005210531030302584,-0.0008526994929467248,0
1196,0.047840000000000105,4.999063621342738,-0.001178632758433426,-0.00019639209112404417,0
1197,0.04787999999999992,5.000707572102282,-0.0005210531030302584,-0.0008552363627115536,0
1198,0.04791999999999996,4.99972120164681,-0.0005210531030302584,-0.0008564933303503437,0
1199,0.04796,5.000049991798719,-0.0008498429307955274,-0.0005289528105641929,0
1200,0.04800000000000004,5.000049991798719,-0.0008498429307955274,-0.0005301944478049352,0
1201,0.04804000000000008,5.000049991798719,-0.0008498429307955274,-0.0005314284032641415,0
1202,0.0480799999999999,5.000049991798719,-0.0018362124133269458,0.0004537148165970964,0
1203,0.04811999999999994,5.000378781950543,-0.0015074225859438989,0.00012370643030458896,0
1204,0.04815999999999998,5.000707572102282,-0.0015074225859438989,0.00012249558609161472,0
1205,0.04820000000000002,5.000049991798719,-0.0018362124133269458,0.0004500822948578795,0
1206,0.04824000000000006,4.99972120164681,-0.002165002240582567,0.0007776767399564311,0
1207,0.0482800000000001,5.000378781950543,-0.001178632758433426,-0.0002098803770628553,0
1208,0.04831999999999992,5.000049991798719,-0.001178632758433426,-0.0002110602538553056,0
1209,0.04835999999999996,5.000378781950543,-0.0015074225859438989,0.00011655746569462131,0
1210,0.0484,4.99972120164681,-0.0005210531030302584,-0.0008709763456301405,0
1211,0.04844000000000004,5.000378781950543,-0.0008498429307955274,-0.0005433430560458695,0
1212,0.04848000000000008,5.000378781950543,-0.001178632758433426,-0.0002157019657150897,0
1213,0.0485199999999999,5.000049991798719,-0.0015074225859438989,0.00011194693596882624,0
1214,0.04855999999999994,5.000378781950543,-0.001178632758433426,-0.00021797599531815951,0
1215,0.04859999999999998,5.000049991798719,-0.001178632758433426,-0.00021910126651247287,0
1216,0.04864000000000002,5.000378781950543,-0.0005210531030302584,-0.0008777983500330485,0
1217,0.04868000000000006,4.999392411494816,-0.0015074225859438989,0.0001074615582972178,0
1218,0.0487200000000001,5.000378781950543,-0.00019226327513760522,-0.0012087994631389805,0
1219,0.048759999999999915,5.000378781950543,-0.0005210531030302584,-0.0008811034715411523,0
1220,0.048799999999999955,5.000049991798719,-0.001178632758433426,-0.00022460976775406038,0
1221,0.048839999999999995,5.000707572102282,-0.001178632758433426,-0.00022568782438578687,0
1222,0.048880000000000035,4.99972120164681,-0.0015074225859438989,0.00010203185174471256,0
1223,0.048920000000000075,5.000707572102282,-0.001178632758433426,-0.00022782021166489622,0
1224,0.048960000000000115,5.000378781950543,-0.0005210531030302584,-0.0008864541772957211,0
1225,0.04899999999999993,5.000049991798719,-0.0015074225859438989,9.886893121381548e-05,0
1226,0.04903999999999997,5.000049991798719,-0.0018362124133269458,0.00042662033012970217,0
1227,0.04908000000000001,4.99972120164681,-0.0015074225859438989,9.680003029101229e-05,0
1228,0.04912000000000005,5.000378781950543,-0.0015074225859438989,9.577752388252266e-05,0
1229,0.04916000000000009,5.000049991798719,-0.0015074225859438989,9.476299351775914e-05,0
1230,0.04919999999999991,4.99972120164681,-0.002165002240582567,0.0007513361037927778,0
1231,0.04923999999999995,4.99972120164681,-0.0018362124133269458,0.00042154772809270546,0
1232,0.04927999999999999,5.000378781950543,-0.0015074225859438989,9.176735806305748e-05,0
1233,0.04932000000000003,5.000049991798719,-0.0015074225859438989,9.078483105341164e-05,0
1234,0.04936000000000007,5.000378781950543,-0.001178632758433426,-0.00023897949803031735,0
1235,0.04940000000000011,5.000049991798719,-0.001178632758433426,-0.00023994596440754415,0
1236,0.04943999999999993,5.000049991798719,-0.0015074225859438989,8.788544164145952e-05,0
1237,0.04947999999999997,5.000378781950543,-0.00019226327513760522,-0.0012282242360308487,0
1238,0.04952000000000001,5.000049991798719,-0.001178632758433426,-0.00024279705536604562,0
1239,0.04956000000000005,4.99972120164681,-0.002165002240582567,0.0007426381979863503,0
1240,0.04960000000000009,5.000049991798719,-0.001178632758433426,-0.00024465742956637673,0
1241,0.049639999999999906,5.000378781950543,-0.0005210531030302584,-0.0009031551374616018,0
1242,0.049679999999999946,4.99972120164681,-0.001178632758433426,-0.00024648543216122094,0
1243,0.049719999999999986,5.000049991798719,-0.0005210531030302584,-0.0009049669258409082,0
1244,0.049760000000000026,5.000049991798719,-0.0018362124133269458,0.0004092986674016487,0
1245,0.049800000000000066,5.000049991798719,-0.0008498429307955274,-0.0005779564016063758,0
1246,0.049840000000000106,5.000378781950543,-0.0008498429307955274,-0.0005788338481914374,0
1247,0.049879999999999924,5.000049991798719,-0.0028225818947114484,0.0013930358183037576,0
1248,0.049919999999999964,5.000049991798719,-0.001178632758433426,-0.0002517744569992082,0
1249,0.049960000000000004,4.99972120164681,-0.00019226327513760522,-0.0012389969117342216,0
1250,0.050000000000000044,4.99972120164681,-0.0018362124133269458,0.0004041074317500553,0
1251,0.050040000000000084,5.000378781950543,-0.0018362124133269458,0.00040327082288579147,0
1252,0.0500799999999999,4.99972120164681,-0.0008498429307955274,-0.0005839270736042554,0
1253,0.05011999999999994,5.000049991798719,0.0030956350107915753,-0.004530225225221466,0
1254,0.05015999999999998,5.000049991798719,-0.00019226327513760522,-0.0012431389364130716,0
1255,0.05020000000000002,5.000378781950543,-0.0015074225859438989,7.121659912038484e-05,0
1256,0.05024000000000006,5.000049991798719,-0.0008498429307955274,-0.0005871586005565693,0
1257,0.0502800000000001,4.999063621342738,-0.002165002240582567,0.0007272134043000153,0
1258,0.05031999999999992,5.000049991798719,-0.0015074225859438989,6.885469314034821e-05,0
1259,0.05035999999999996,5.001036362253937,-0.0005210531030302584,-0.0009182855891161788,0
1260,0.0504,5.000707572102282,-0.0015074225859438989,6.732136035856153e-05,0
1261,0.05044000000000004,5.000378781950543,0.00013652655288240445,-0.0015773820373196736,0
1262,0.05048000000000008,4.999392411494816,-0.001178632758433426,-0.0002629687016288447,0
1263,0.0505199999999999,5.000049991798719,-0.0008498429307955274,-0.0005924962130679756,0
1264,0.05055999999999994,5.001036362253937,-0.0005210531030302584,-0.0009220154242571214,0
1265,0.05059999999999998,4.999063621342738,0.00013652655288240445,-0.0015803161547060813,0
1266,0.05064000000000002,4.999063621342738,-0.0018362124133269458,0.00039171005432129635,0
1267,0.05068000000000006,5.000049991798719,-0.0024937920677107622,0.0010485852773006207,0
1268,0.0507200000000001,5.000378781950543,-0.0018362124133269458,0.00039030952566923875,0
1269,0.050759999999999916,4.99972120164681,-0.0008498429307955274,-0.0005967477116172021,0
1270,0.050799999999999956,5.000049991798719,-0.0015074225859438989,6.0152539560367254e-05,0
1271,0.050839999999999996,5.000707572102282,-0.0008498429307955274,-0.0005980981605269599,0
1272,0.050880000000000036,4.99972120164681,-0.00019226327513760522,-0.0012563404938885348,0
1273,0.050920000000000076,4.99972120164681,-0.001178632758433426,-0.00027062531290188456,0
1274,0.050960000000000116,5.000049991798719,-0.0015074225859438989,5.7518595808690905e-05,0
1275,0.050999999999999934,4.999392411494816,-0.0005210531030302584,-0.0009294884143252894,0
1276,0.051039999999999974,5.000049991798719,-0.001178632758433426,-0.0002725378865372387,0
1277,0.051080000000000014,4.99972120164681,-0.0008498429307955274,-0.0006019484342040897,0
1278,0.051120000000000054,5.000707572102282,-0.0005210531030302584,-0.0009313505664760464,0
1279,0.051160000000000094,5.000049991798719,-0.0008498429307955274,-0.0006031646198040503,0
1280,0.05119999999999991,5.000049991798719,-0.0015074225859438989,5.381958551055159e-05,0
1281,0.05123999999999995,5.000378781950543,-0.0008498429307955274,-0.0006043470804111696,0
1282,0.05127999999999999,5.000049991798719,-0.002165002240582567,0.0007102336654185692,0
1283,0.05132000000000003,5.000378781950543,-0.0018362124133269458,0.0003808737287319358,0
1284,0.05136000000000007,5.000378781950543,-0.0018362124133269458,0.0003803120814919415,0
1285,0.05140000000000011,5.000049991798719,-0.0018362124133269458,0.00037975890406208063,0
1286,0.05143999999999993,5.000378781950543,-0.0015074225859438989,5.0424376632701023e-05,0
1287,0.05147999999999997,5.000049991798719,-0.0018362124133269458,0.0003786779888805098,0
1288,0.05152000000000001,5.000049991798719,-0.0018362124133269458,0.0003781502661379943,0
1289,0.05156000000000005,4.99972120164681,-0.001178632758433426,-0.00027994861166973713,0
1290,0.05160000000000009,5.000378781950543,-0.002165002240582567,0.0007059101547829208,0
1291,0.05163999999999991,5.000049991798719,-0.001178632758433426,-0.0002809615285018094,0
1292,0.05167999999999995,4.99972120164681,-0.0008498429307955274,-0.0006102450354176148,0
1293,0.05171999999999999,5.000707572102282,-0.0018362124133269458,0.0003756392969438908,0
1294,0.05176000000000003,5.000378781950543,-0.0015074225859438989,4.6372855702651134e-05,0
1295,0.05180000000000007,5.000049991798719,-0.002165002240582567,0.0007034844399518766,0
1296,0.05184000000000011,5.000378781950543,-0.0015074225859438989,4.544526550274942e-05,0
1297,0.051879999999999926,5.000049991798719,-0.001178632758433426,-0.00028379552417587576,0
1298,0.051919999999999966,5.000378781950543,-0.0018362124133269458,0.00037334173320811175,0
1299,0.051960000000000006,4.999392411494816,-0.0005210531030302584,-0.0009422514029702887,0
1300,0.052000000000000046,5.000049991798719,-0.0015074225859438989,4.369283261143207e-05,0
1301,0.052040000000000086,4.99972120164681,-0.0024937920677107622,0.0010296456524708224,0
1302,0.052079999999999904,4.999063621342738,-0.0015074225859438989,4.286810104815546e-05,0
1303,0.052119999999999944,4.999392411494816,0.001122896037706475,-0.0025878499932266695,0
1304,0.052159999999999984,4.999063621342738,-0.002165002240582567,0.000699657420201308,0
1305,0.052200000000000024,5.001036362253937,-0.0005210531030302584,-0.0009446739697643747,0
1306,0.052240000000000064,4.999392411494816,-0.0018362124133269458,0.00037011170720306977,0
1307,0.052280000000000104,5.000707572102282,-0.001178632758433426,-0.00028783295534706395,0
1308,0.05231999999999992,4.999063621342738,-0.0018362124133269458,0.0003693903241029071,0
1309,0.05235999999999996,4.999392411494816,-0.002165002240582567,0.0006978324146203229,0
1310,0.0524,5.000378781950543,-0.002165002240582567,0.0006974933230314779,0
1311,0.05244000000000004,5.002351522859708,-0.003808951374948702,0.002341112017353779,0
1312,0.05248000000000008,4.999392411494816,-0.0005210531030302584,-0.0009471080367163042,0
1313,0.0525199999999999,4.997748460733576,-0.0028225818947114484,0.0013541076370040402,0
1314,0.05255999999999994,4.999063621342738,-0.001178632758433426,-0.00029014594679409355,0
1315,0.05259999999999998,4.998734831190575,0.0004653163810297567,-0.0019343908571354904,0
1316,0.05264000000000002,5.000707572102282,0.0007941062093044515,-0.0022634677734942044,0
1317,0.05268000000000006,5.000378781950543,-0.0015074225859438989,3.778262256765475e-05,0
1318,0.0527200000000001,5.000378781950543,-0.0024937920677107622,0.0010238824000998225,0
1319,0.05275999999999992,4.999392411494816,-0.0015074225859438989,3.7251915055159656e-05,0
1320,0.05279999999999996,5.000707572102282,-0.0015074225859438989,3.699961869008963e-05,0
1321,0.05284,5.000378781950543,-0.0018362124133269458,0.00036554586252726944,0
1322,0.05288000000000004,5.000378781950543,-0.0018362124133269458,0.0003653109976576209,0
1323,0.05292000000000008,5.000049991798719,-0.0018362124133269458,0.0003650848572716517,0
1324,0.052959999999999896,4.99972120164681,-0.0015074225859438989,3.6077619744124536e-05,0
1325,0.052999999999999936,5.000378781950543,-0.002165002240582567,0.0006934486001878622,0
1326,0.053039999999999976,5.000378781950543,-0.002165002240582567,0.0006932486676007026,0
1327,0.053080000000000016,5.000049991798719,-0.0018362124133269458,0.0003642676549739731,0
1328,0.053120000000000056,5.000049991798719,-0.0031513717215847087,0.0016792445306349226,0
1329,0.053160000000000096,5.000049991798719,-0.0018362124133269458,0.00036391154806276116,0
1330,0.053199999999999914,5.000049991798719,-0.0018362124133269458,0.00036374663748866664,0
1331,0.053239999999999954,4.999392411494816,-0.0018362124133269458,0.0003635904960624473,0
1332,0.053279999999999994,5.000049991798719,-0.0018362124133269458,0.0003634431291412583,0
1333,0.053320000000000034,4.99972120164681,-0.002165002240582567,0.0006920943692873666,0
1334,0.053360000000000074,5.000049991798719,-0.001178632758433426,-0.00029440491490356345,0
1335,0.053400000000000114,5.000378781950543,-0.002165002240582567,0.0006918435554768613,0
1336,0.05343999999999993,5.000378781950543,-0.0024937920677107622,0.001020521166263981,0
1337,0.05347999999999997,4.99972120164681,-0.0031513717215847087,0.001677997404328179,0
1338,0.05352000000000001,5.000049991798719,-0.0031513717215847087,0.001677902794102474,0
1339,0.05356000000000005,5.000049991798719,-0.0028225818947114484,0.0013490271675892075,0
1340,0.05360000000000009,5.000049991798719,-0.0018362124133269458,0.0003625807021008972,0
1341,0.05363999999999991,4.99972120164681,-0.0024937920677107622,0.0010200921928163575,0
