,seconds,Trig,EMG_amplitude,EMG_amplitude_filter,peaks
0,0.0,5.000378781950543,-0.0005210531030302584,0.00076181536133691,0
1,4.0000000000040004e-05,5.000707572102282,-0.00019226327513760522,0.00043514875789197097,0
2,8.000000000008001e-05,5.000378781950543,0.00013652655288240445,0.00010847685304284701,0
3,0.00011999999999989797,5.000049991798719,0.0007941062093044515,-0.0005469901984578567,0
4,0.00015999999999993797,5.000378781950543,0.001122896037706475,-0.0008736727571348937,0
5,0.00019999999999997797,5.000049991798719,-0.00019226327513760522,0.0004435884733170706,0
6,0.00024000000000001798,5.000378781950543,-0.0005210531030302584,0.0007744748498059971,0
7,0.000280000000000058,5.000378781950543,-0.0005210531030302584,0.0007765660125225532,0
8,0.000320000000000098,5.000049991798719,-0.0005210531030302584,0.0007786517725178523,0
9,0.00035999999999991594,5.000049991798719,-0.00019226327513760522,0.0004519422850844338,0
10,0.00039999999999995595,5.000378781950543,-0.00019226327513760522,0.0004540171892196915,0
11,0.00043999999999999595,5.000049991798719,-0.00019226327513760522,0.0004560866402701202,0
12,0.00048000000000003595,5.000378781950543,-0.00019226327513760522,0.0004581506215020914,0
13,0.000520000000000076,5.000378781950543,0.00013652655288240445,0.0001314192881893563,0
14,0.0005599999999998939,5.000378781950543,0.00013652655288240445,0.00013347227969324723,0
15,0.0005999999999999339,5.000378781950543,0.0007941062093044515,-0.0005220599050792642,0
16,0.0006399999999999739,5.000378781950543,-0.00019226327513760522,0.00046635151453488155,0
17,0.0006800000000000139,5.000378781950543,0.00013652655288240445,0.0001395980686144699,0
18,0.0007200000000000539,5.000378781950543,0.0004653163810297567,-0.00018716094707261458,0
19,0.0007600000000000939,5.000378781950543,0.0007941062093044515,-0.0005139255490648402,0
20,0.0007999999999999119,5.000707572102282,-0.0005210531030302584,0.0008032533868646059,0
21,0.0008399999999999519,4.99972120164681,-0.001178632758433426,0.0014628470466935422,0
22,0.0008799999999999919,5.000049991798719,0.00013652655288240445,0.00014969610418213704,0
23,0.0009200000000000319,5.000049991798719,-0.0005210531030302584,0.0008092784768545248,0
24,0.0009600000000000719,5.000378781950543,-0.0008498429307955274,0.0011400653529406528,0
25,0.001000000000000112,5.000378781950543,0.00013652655288240445,0.00015568723277989958,0
26,0.0010399999999999299,5.000378781950543,-0.0008498429307955274,0.0011440423788360273,0
27,0.0010799999999999699,5.000378781950543,-0.0008498429307955274,0.0011460223237696205,0
28,0.0011200000000000099,5.000049991798719,-0.00019226327513760522,0.0004904168793249065,0
29,0.0011600000000000499,5.000049991798719,-0.0008498429307955274,0.0011499649962298693,0
30,0.0012000000000000899,5.000049991798719,-0.00019226327513760522,0.0004943480356372007,0
31,0.0012399999999999078,5.000378781950543,-0.00019226327513760522,0.0004963049483353656,0
32,0.0012799999999999478,5.000378781950543,0.0004653163810297567,-0.0001593235936557353,0
33,0.0013199999999999878,5.000378781950543,-0.00019226327513760522,0.0005002013620418149,0
34,0.0013600000000000279,5.000049991798719,-0.0005210531030302584,0.0008309306587252285,0
35,0.0014000000000000679,5.000049991798719,0.00013652655288240445,0.00017528462480151537,0
36,0.0014400000000001079,5.000378781950543,-0.0005210531030302584,0.0008347920398700682,0
37,0.0014799999999999258,5.001036362253937,-0.001178632758433426,0.0014942935755961149,0
38,0.0015199999999999658,5.000378781950543,-0.0008498429307955274,0.0011674197334795905,0
39,0.0015600000000000058,5.000049991798719,-0.0008498429307955274,0.0011693298082625818,0
40,0.0016000000000000458,5.000049991798719,-0.0008498429307955274,0.0011712339564020923,0
41,0.0016400000000000858,5.000378781950543,0.00013652655288240445,0.0001867626783470318,0
42,0.0016799999999999038,5.000049991798719,-0.00019226327513760522,0.0005174447536322115,0
43,0.0017199999999999438,5.000378781950543,-0.0008498429307955274,0.0011769106823888015,0
44,0.0017599999999999838,5.000049991798719,-0.00019226327513760522,0.0005212113098866636,0
45,0.0018000000000000238,5.000049991798719,-0.0005210531030302584,0.0008518754152484135,0
46,0.0018400000000000638,5.000707572102282,-0.0008498429307955274,0.0011825334990850295,0
47,0.0018800000000001038,5.000049991798719,-0.0015074225859438989,0.0018419753732288344,0
48,0.0019199999999999218,5.000707572102282,-0.0005210531030302584,0.0008574620565896061,0
49,0.0019599999999999618,4.99972120164681,0.00013652655288240445,0.00020173249861843608,0
50,0.0020000000000000018,5.000049991798719,-0.0005210531030302584,0.0008611561685611462,0
51,0.0020400000000000418,4.999063621342738,-0.0005210531030302584,0.0008629940831347536,0
52,0.002080000000000082,5.000049991798719,0.00013652655288240445,0.00020724622682794934,0
53,0.0021199999999998997,5.000049991798719,-0.001178632758433426,0.0015242312073044228,0
54,0.0021599999999999397,5.000707572102282,-0.00019226327513760522,0.0005396812472805681,0
55,0.0021999999999999797,5.000049991798719,0.00013652655288240445,0.00021270478123454166,0
56,0.0022400000000000198,5.000049991798719,0.0004653163810297567,-0.00011427786161179697,0
57,0.0022800000000000598,5.000049991798719,0.0007941062093044515,-0.00044126669659896086,0
58,0.0023200000000000998,5.000378781950543,-0.00019226327513760522,0.0005468975738112629,0
59,0.0023599999999999177,5.000049991798719,-0.0005210531030302584,0.0008774759650816307,0
60,0.0023999999999999577,5.000378781950543,0.0004653163810297567,-0.00010711119342726445,0
61,0.0024399999999999977,5.000049991798719,-0.0005210531030302584,0.0008810343631562392,0
62,0.0024800000000000377,5.000049991798719,-0.0008498429307955274,0.0012115939952515994,0
63,0.0025200000000000777,5.000049991798719,0.00013652655288240445,0.00022698803258001748,0
64,0.0025599999999998957,4.99972120164681,-0.00019226327513760522,0.0005575350831878678,0
65,0.0025999999999999357,4.99972120164681,0.00013652655288240445,0.00023049616427816188,0
66,0.0026399999999999757,5.000378781950543,0.0004653163810297567,-9.654908325956008e-05,0
67,0.0026800000000000157,5.000378781950543,-0.0005210531030302584,0.0008915586379223248,0
68,0.0027200000000000557,5.000378781950543,0.0004653163810297567,-9.307896745445782e-05,0
69,0.0027600000000000957,5.000378781950543,0.0004653163810297567,-9.135346212438234e-05,0
70,0.0027999999999999137,5.000378781950543,-0.0005210531030302584,0.000896735139034552,0
71,0.0028399999999999537,5.000378781950543,0.0004653163810297567,-8.7921630999024e-05,0
72,0.0028799999999999937,5.000049991798719,0.001122896037706475,-0.0007437949915262822,0
73,0.0029200000000000337,5.000049991798719,0.0007941062093044515,-0.0004133052996192904,0
74,0.0029600000000000737,5.000049991798719,0.0007941062093044515,-0.0004116118834891873,0
75,0.0029999999999998916,5.000378781950543,0.00013652655288240445,0.0002476547269950164,0
76,0.0030399999999999316,5.000378781950543,0.00013652655288240445,0.00024933520433359285,0
77,0.0030799999999999716,4.99972120164681,0.0004653163810297567,-7.778063781679781e-05,0
78,0.0031200000000000117,5.000707572102282,-0.00019226327513760522,0.0005814664984256298,0
79,0.0031600000000000517,5.000707572102282,-0.0005210531030302584,0.0009119172859290821,0
80,0.0032000000000000917,5.000378781950543,-0.0005210531030302584,0.0009135717105713072,0
81,0.0032399999999999096,4.999392411494816,-0.00019226327513760522,0.0005864297578862153,0
82,0.0032799999999999496,5.000049991798719,0.001122896037706475,-0.0007270882436126831,0
83,0.0033199999999999896,4.998734831190575,0.00013652655288240445,0.00026091597430499857,0
84,0.0033600000000000296,5.001036362253937,0.0004653163810297567,-6.624571335081845e-05,0
85,0.0034000000000000696,5.000378781950543,-0.00019226327513760522,0.0005929554763943262,0
86,0.0034400000000001096,5.001365152405508,-0.0024937920677107622,0.0028960991813588226,0
87,0.0034799999999999276,5.000707572102282,0.0014516858662357995,-0.001047770475616393,0
88,0.0035199999999999676,4.999063621342738,-0.00019226327513760522,0.0005977802931140938,0
89,0.0035600000000000076,5.001036362253937,0.0004653163810297567,-5.820439946526551e-05,0
90,0.0036000000000000476,4.99972120164681,0.0004653163810297567,-5.6616113761568635e-05,0
91,0.0036400000000000876,5.001693942556992,0.0007941062093044515,-0.00038382434829234814,0
92,0.0036799999999999056,5.001036362253937,0.0004653163810297567,-5.345963226909684e-05,0
93,0.0037199999999999456,5.000049991798719,0.0027668451816259126,-0.002353420265107579,0
94,0.0037599999999999856,4.999063621342738,0.0014516858662357995,-0.0010366995159059966,0
95,0.0038000000000000256,4.999063621342738,-0.0005210531030302584,0.00093759413931036,0
96,0.0038400000000000656,5.000707572102282,0.0004653163810297567,-4.7227420534985036e-05,0
97,0.0038800000000001056,5.000378781950543,0.001122896037706475,-0.0007032659285664677,0
98,0.0039199999999999235,5.000378781950543,0.0007941062093044515,-0.0003729417408816399,0
99,0.0039599999999999635,4.99972120164681,0.0004653163810297567,-4.262435643861105e-05,0
100,0.0040000000000000036,4.99972120164681,0.001122896037706475,-0.0006986832737723991,0
101,0.0040400000000000436,5.000378781950543,-0.00019226327513760522,0.0006179899479195264,0
102,0.0040800000000000836,5.000707572102282,-0.0008498429307955274,0.0012770766683019342,0
103,0.0041199999999999015,5.000378781950543,0.00013652655288240445,0.0002922073916384017,0
104,0.0041599999999999415,4.99972120164681,-0.00019226327513760522,0.0006224905554176914,0
105,0.0041999999999999815,5.000378781950543,0.00013652655288240445,0.0002951871783986565,0
106,0.0042400000000000215,5.000707572102282,0.001122896037706475,-0.0006897027536439402,0
107,0.0042800000000000615,4.999392411494816,0.0007941062093044515,-0.0003594402840990012,0
108,0.0043200000000001015,5.000378781950543,0.00013652655288240445,0.00029960508845063564,0
109,0.0043599999999999195,5.000049991798719,0.0007941062093044515,-0.0003565157901934794,0
110,0.0043999999999999595,5.000049991798719,0.0004653163810297567,-2.627413578226484e-05,0
111,0.0044399999999999995,5.000049991798719,0.0007941062093044515,-0.0003536191028108769,0
112,0.0044800000000000395,5.000378781950543,0.0007941062093044515,-0.00035218121966138426,0
113,0.0045200000000000795,5.000378781950543,0.0004653163810297567,-2.1960499496917908e-05,0
114,0.0045599999999998975,5.000049991798719,0.001122896037706475,-0.0006781162686635474,0
115,0.0045999999999999375,5.000049991798719,0.001122896037706475,-0.0006766993986097927,0
116,0.0046399999999999775,5.000378781950543,0.001122896037706475,-0.0006752895590455661,0
117,0.0046800000000000175,5.000049991798719,0.001122896037706475,-0.0006738867629604633,0
118,0.0047200000000000575,5.000707572102282,0.00013652655288240445,0.00031387846152373407,0
119,0.0047600000000000975,4.999392411494816,0.0004653163810297567,-1.3522696290427195e-05,0
120,0.0047999999999999154,4.99972120164681,0.00013652655288240445,0.0003166487200052516,0
121,0.0048399999999999554,4.999392411494816,0.00013652655288240445,0.00031802321315496554,0
122,0.0048799999999999955,5.000707572102282,0.0007941062093044515,-0.000338189057885407,0
123,0.0049200000000000355,5.000378781950543,-0.00019226327513760522,0.0006495406914453203,0
124,0.0049600000000000755,5.000378781950543,-0.00019226327513760522,0.0006508938231606326,0
125,0.004999999999999893,5.000049991798719,0.0007941062093044515,-0.0003341296753750768,0
126,0.005039999999999933,5.000707572102282,0.0007941062093044515,-0.0003327908478684106,0
127,0.005079999999999973,5.000049991798719,0.0004653163810297567,-2.6693630324112726e-06,0
128,0.005120000000000013,5.000049991798719,0.001780475694892425,-0.0013165042037796399,0
129,0.005160000000000053,5.000378781950543,0.001122896037706475,-0.0006576072693793044,0
130,0.0052000000000000934,4.99972120164681,0.0014516858662357995,-0.0009850870290050223,0
131,0.005239999999999911,5.000049991798719,0.001122896037706475,-0.000654994352246998,0
132,0.005279999999999951,5.000049991798719,0.0004653163810297567,3.880919665125897e-06,0
133,0.005319999999999991,5.000378781950543,0.0004653163810297567,5.16928963472887e-06,0
134,0.005360000000000031,5.000378781950543,0.0007941062093044515,-0.0003223394261626561,0
135,0.005400000000000071,5.000707572102282,0.0007941062093044515,-0.0003210655833579717,0
136,0.005440000000000111,5.000049991798719,0.0007941062093044515,-0.0003197990223599472,0
137,0.005479999999999929,5.000378781950543,0.001780475694892425,-0.0013049092408441547,0
138,0.005519999999999969,4.99972120164681,0.001780475694892425,-0.0013036572796756728,0
139,0.005560000000000009,5.000378781950543,0.0014516858662357995,-0.0009736228077801593,0
140,0.005600000000000049,5.000378781950543,0.001122896037706475,-0.0006435956658889952,0
141,0.005640000000000089,4.99972120164681,0.001122896037706475,-0.000642365694304667,0
142,0.005679999999999907,5.000049991798719,0.0021092655236763236,-0.0016275125623210313,0
143,0.005719999999999947,5.000378781950543,0.0021092655236763236,-0.0016262973098044578,0
144,0.005759999999999987,5.000049991798719,0.0014516858662357995,-0.0009675097770429346,0
145,0.005800000000000027,5.000049991798719,0.001122896037706475,-0.0006375194620993097,0
146,0.005840000000000067,5.000378781950543,0.001122896037706475,-0.0006363263762551596,0
147,0.005880000000000107,5.000049991798719,0.0004653163810297567,2.2438954079914198e-05,0
148,0.005919999999999925,5.000378781950543,0.0007941062093044515,-0.00030517262428991917,0
149,0.005959999999999965,4.99972120164681,0.0021092655236763236,-0.0016191611240300456,0
150,0.006000000000000005,5.000378781950543,0.0024380553525874815,-0.001946787585053983,0
151,0.006040000000000045,5.000049991798719,0.0007941062093044515,-0.000301682532051318,0
152,0.006080000000000085,5.000707572102282,0.001780475694892425,-0.0012869035774618143,0
153,0.006119999999999903,5.000707572102282,0.0021092655236763236,-0.0016145524469363599,0
154,0.006159999999999943,4.99972120164681,0.0014516858662357995,-0.000955839322331822,0
155,0.006199999999999983,5.000049991798719,0.0024380553525874815,-0.0019410828448931617,0
156,0.006240000000000023,4.99972120164681,0.0014516858662357995,-0.0009535949093041322,0
157,0.006280000000000063,5.000378781950543,0.0014516858662357995,-0.0009524839857499531,0
158,0.006320000000000103,5.000049991798719,0.0014516858662357995,-0.0009513805989598416,0
159,0.006359999999999921,5.000378781950543,0.001122896037706475,-0.0006214949314359654,0
160,0.006399999999999961,5.000049991798719,0.0007941062093044515,-0.00029161682281690236,0
161,0.006440000000000001,5.000378781950543,0.0004653163810297567,3.8253715965036364e-05,0
162,0.006480000000000041,4.999392411494816,0.0007941062093044515,-0.00028946298239469303,0
163,0.006520000000000081,5.000049991798719,0.0014516858662357995,-0.0009459771008359077,0
164,0.006559999999999899,5.000378781950543,0.0007941062093044515,-0.0002873395076217536,0
165,0.006599999999999939,5.000378781950543,0.0014516858662357995,-0.0009438688412099282,0
166,0.006639999999999979,5.000378781950543,0.001122896037706475,-0.0006140363129590559,0
167,0.006680000000000019,5.000707572102282,0.0004653163810297567,4.457840918603776e-05,0
168,0.006720000000000059,4.99972120164681,0.001780475694892425,-0.0012695534840423985,0
169,0.006760000000000099,5.000378781950543,0.0021092655236763236,-0.001597323547556481,0
170,0.006799999999999917,5.000049991798719,0.001780475694892425,-0.00126752161934662,0
171,0.006839999999999957,5.000707572102282,0.0014516858662357995,-0.0009377273675363665,0
172,0.006879999999999997,5.000378781950543,0.0021092655236763236,-0.0015943102884729892,0
173,0.006920000000000037,4.99972120164681,0.0027668451816259126,-0.0022509009068945865,0
174,0.006960000000000077,5.000378781950543,0.0024380553525874815,-0.0019211297455789121,0
175,0.006999999999999895,4.99972120164681,0.0014516858662357995,-0.0009337866444241015,0
176,0.007039999999999935,5.000049991798719,0.0014516858662357995,-0.0009328207572668556,0
177,0.007079999999999975,5.001036362253937,0.001122896037706475,-0.0006030727793462146,0
178,0.007120000000000015,5.000049991798719,0.0007941062093044515,-0.00027333254938700295,0
179,0.007160000000000055,4.999392411494816,0.001780475694892425,-0.0012587593912681439,0
180,0.007200000000000095,5.000049991798719,0.001780475694892425,-0.0012578245153758022,0
181,0.007239999999999913,5.000378781950543,0.0024380553525874815,-0.0019144770749049203,0
182,0.007279999999999953,5.000378781950543,0.0007941062093044515,-0.00026960862104192596,0
183,0.007319999999999993,5.000378781950543,0.001780475694892425,-0.0012550665934430068,0
184,0.007360000000000033,5.000378781950543,0.0014516858662357995,-0.0009253730587470751,0
185,0.007400000000000073,5.000049991798719,0.0024380553525874815,-0.001910846655908838,0
186,0.007440000000000113,5.000049991798719,0.001780475694892425,-0.0012523789355222271,0
187,0.007479999999999931,4.99972120164681,0.0024380553525874815,-0.001909078366620122,0
188,0.007519999999999971,4.99972120164681,0.001780475694892425,-0.001250626327965256,0
189,0.007560000000000011,5.000707572102282,0.001780475694892425,-0.0012497618021325638,0
190,0.007600000000000051,5.000049991798719,0.001780475694892425,-0.0012489051408634418,0
191,0.007640000000000091,5.000378781950543,0.001122896037706475,-0.0005904766963549625,0
192,0.007679999999999909,5.000049991798719,0.001122896037706475,-0.0005896357923084967,0
193,0.007719999999999949,5.000049991798719,0.001780475694892425,-0.0012463824379998485,0
194,0.007759999999999989,5.000378781950543,0.0007941062093044515,-0.0002591878426911622,0
195,0.007800000000000029,5.000378781950543,0.0014516858662357995,-0.0009159503008437898,0
196,0.00784000000000007,5.000049991798719,0.001780475694892425,-0.0012439308507777743,0
197,0.00788000000000011,5.000378781950543,0.0021092655236763236,-0.0015719193299550565,0
198,0.007919999999999927,4.999392411494816,0.0024380553525874815,-0.0018999157473813086,0
199,0.007959999999999967,5.000378781950543,0.0021092655236763236,-0.0015703404540582696,0
200,0.008000000000000007,5.000049991798719,0.0021092655236763236,-0.0015695629456162425,0
201,0.008040000000000047,5.000707572102282,0.0021092655236763236,-0.0015687934019862951,0
202,0.008080000000000087,5.000707572102282,0.001122896037706475,-0.0005816623459860825,0
203,0.008119999999999905,5.000049991798719,0.001780475694892425,-0.0012384884154739142,0
204,0.008159999999999945,4.99972120164681,0.001780475694892425,-0.0012377428187857567,0
205,0.008199999999999985,5.000049991798719,0.0014516858662357995,-0.0009082153930735819,0
206,0.008240000000000025,4.99972120164681,0.0021092655236763236,-0.0015650654616586321,0
207,0.008280000000000065,5.000707572102282,0.001780475694892425,-0.001235554060731513,0
208,0.008320000000000105,4.99972120164681,0.0021092655236763236,-0.0015636303425412132,0
209,0.008359999999999923,5.000049991798719,0.0021092655236763236,-0.001562924829137286,0
210,0.008399999999999963,5.000378781950543,0.0014516858662357995,-0.0009046477002087238,0
211,0.008440000000000003,4.99972120164681,0.0024380553525874815,-0.0018903277652781295,0
212,0.008480000000000043,4.99972120164681,0.0030956350107915753,-0.0025472260606397316,0
213,0.008520000000000083,5.000049991798719,0.0021092655236763236,-0.0015601832772998278,0
214,0.008559999999999901,5.000378781950543,0.0030956350107915753,-0.0025458875429302417,0
215,0.008599999999999941,5.000049991798719,0.001122896037706475,-0.0005724914311659127,0
216,0.008639999999999981,5.000049991798719,0.0021092655236763236,-0.0015582118692716322,0
217,0.008680000000000021,5.000049991798719,0.001780475694892425,-0.001228781091391799,0
218,0.008720000000000061,5.000049991798719,0.0014516858662357995,-0.0008993584203040131,0
219,0.008760000000000101,5.000378781950543,0.001780475694892425,-0.0012275235210342105,0
220,0.008799999999999919,4.99972120164681,0.0024380553525874815,-0.001884486573090806,0
221,0.008839999999999959,4.999392411494816,0.0007941062093044515,-0.00023992895418368458,0
222,0.008879999999999999,5.000378781950543,0.0014516858662357995,-0.0008969082731747689,0
223,0.008920000000000039,4.99972120164681,0.0027668451816259126,-0.002211475395920862,0
224,0.008960000000000079,5.000049991798719,0.0027668451816259126,-0.002210891356128348,0
225,0.008999999999999897,5.000049991798719,0.0021092655236763236,-0.0015527358187357489,0
226,0.009039999999999937,4.99972120164681,0.001780475694892425,-0.001223378278298971,0
227,0.009079999999999977,4.99972120164681,0.0021092655236763236,-0.0015516085706032733,0
228,0.009120000000000017,5.000707572102282,0.0027668451816259126,-0.0022086368745721213,0
229,0.009160000000000057,4.99972120164681,0.001780475694892425,-0.0012217242236246364,0
230,0.009200000000000097,4.99972120164681,0.0021092655236763236,-0.0015499790851713799,0
231,0.009239999999999915,5.000049991798719,0.0021092655236763236,-0.0015494523220632782,0
232,0.009279999999999955,5.000378781950543,0.0014516858662357995,-0.000891354112737928,0
233,0.009319999999999995,4.999063621342738,0.0027668451816259126,-0.002206003094502618,0
234,0.009360000000000035,5.000049991798719,0.001780475694892425,-0.0012191314993810507,0
235,0.009400000000000075,5.000049991798719,0.0027668451816259126,-0.00220500710988344,0
236,0.009439999999999893,5.000049991798719,0.0030956350107915753,-0.0025333113018362313,0
237,0.009479999999999933,5.000378781950543,0.0027668451816259126,-0.0022040440812786744,0
238,0.009519999999999973,4.99972120164681,0.0030956350107915753,-0.0025323647716175733,0
239,0.009560000000000013,5.000049991798719,0.0027668451816259126,-0.0022031140628757406,0
240,0.009600000000000053,5.000378781950543,0.001780475694892425,-0.0012162919624433403,0
241,0.009640000000000093,5.000049991798719,0.0024380553525874815,-0.0018734272788845131,0
242,0.009679999999999911,5.000049991798719,0.001780475694892425,-0.001215411558889384,0
243,0.009719999999999951,5.000378781950543,0.0027668451816259126,-0.0022013532687262995,0
244,0.009759999999999991,4.99972120164681,0.0027668451816259126,-0.0022009337836237323,0
245,0.009800000000000031,5.000049991798719,0.001780475694892425,-0.0012141531099129012,0
246,0.009840000000000071,5.000707572102282,0.001780475694892425,-0.0012137502273326186,0
247,0.009880000000000111,5.000049991798719,0.0021092655236763236,-0.001542145484145654,0
248,0.009919999999999929,5.000378781950543,0.0014516858662357995,-0.000884179571496471,0
249,0.009959999999999969,5.000378781950543,0.0024380553525874815,-0.0018701711254948137,0
250,0.010000000000000009,5.000378781950543,0.001780475694892425,-0.001212221864335094,0
251,0.010040000000000049,4.99972120164681,0.0021092655236763236,-0.0015406504245165022,0
252,0.010080000000000089,5.000378781950543,0.003753214669504526,-0.0031842466425179303,0
253,0.010119999999999907,4.999392411494816,0.0030956350107915753,-0.002526322402607422,0
254,0.010159999999999947,4.998734831190575,0.0030956350107915753,-0.0025259861738324355,0
255,0.010199999999999987,5.000378781950543,0.001780475694892425,-0.0012104989873139929,0
256,0.010240000000000027,5.001036362253937,0.0030956350107915753,-0.0025253387964223367,0
257,0.010280000000000067,5.000049991798719,0.0024380553525874815,-0.0018674480008683022,0
258,0.010320000000000107,5.000707572102282,0.0030956350107915753,-0.002524724896715186,0
259,0.010359999999999925,5.000049991798719,0.003424424840084442,-0.0028532203441348387,0
260,0.010399999999999965,4.999392411494816,0.0027668451816259126,-0.0021953546897176663,0
261,0.010440000000000005,5.000378781950543,0.003753214669504526,-0.003181446572921999,0
262,0.010480000000000045,4.999063621342738,0.0024380553525874815,-0.0018660180479239685,0
263,0.010520000000000085,4.999392411494816,0.003424424840084442,-0.002852126729181204,0
264,0.010559999999999903,5.000378781950543,0.0024380553525874815,-0.0018655048424727134,0
265,0.010599999999999943,5.000378781950543,0.003424424840084442,-0.0028516303429121344,0
266,0.010639999999999983,4.99972120164681,0.0030956350107915753,-0.002522604943780307,0
267,0.010680000000000023,5.000378781950543,0.0024380553525874815,-0.0018647981379591118,0
268,0.010720000000000063,4.99972120164681,0.003424424840084442,-0.002850948905002724,0
269,0.010760000000000103,5.000049991798719,0.0021092655236763236,-0.0015355793001854392,0
270,0.01079999999999992,5.000049991798719,0.0030956350107915753,-0.0025217469357545715,0
271,0.01083999999999996,5.000049991798719,0.0030956350107915753,-0.002521553525828733,0
272,0.01088,5.000378781950543,0.0027668451816259126,-0.0021925787330530216,0
273,0.01092000000000004,5.000378781950543,0.0024380553525874815,-0.0018636123913540325,0
274,0.01096000000000008,5.000049991798719,0.001780475694892425,-0.0012058646765197142,0
275,0.010999999999999899,4.99972120164681,0.0014516858662357995,-0.0008769152507549524,0
276,0.011039999999999939,4.99972120164681,0.0021092655236763236,-0.001534343775566232,0
277,0.011079999999999979,5.000378781950543,0.0024380553525874815,-0.001862990940712667,0
278,0.011120000000000019,5.000049991798719,0.0027668451816259126,-0.002191646579174305,0
279,0.011160000000000059,5.000378781950543,0.0027668451816259126,-0.00219152086604655,0
280,0.011200000000000099,4.999392411494816,0.0021092655236763236,-0.001533823976616974,0
281,0.011239999999999917,5.000378781950543,0.0021092655236763236,-0.0015337152309210242,0
282,0.011279999999999957,4.999392411494816,0.0024380553525874815,-0.001862404803994001,0
283,0.011319999999999997,5.001036362253937,0.001122896037706475,-0.0005471537271437006,0
284,0.011360000000000037,5.000378781950543,0.0027668451816259126,-0.0021910196069111552,0
285,0.011400000000000077,5.000049991798719,0.0024380553525874815,-0.0018621550154237134,0
286,0.011439999999999895,5.000707572102282,0.0021092655236763236,-0.001533298929589328,0
287,0.011479999999999935,5.000707572102282,0.001780475694892425,-0.0012044513531678748,0
288,0.011519999999999975,5.000049991798719,0.001780475694892425,-0.0012044021185128864,0
289,0.011560000000000015,5.000049991798719,0.0014516858662357995,-0.000875571571817665,0
290,0.011600000000000055,5.000049991798719,0.0014516858662357995,-0.0008755393739661443,0
291,0.011640000000000095,5.000707572102282,0.0014516858662357995,-0.0008755156998091677,0
292,0.011679999999999913,5.000378781950543,0.003424424840084442,-0.0028482395266395547,0
293,0.011719999999999953,4.99972120164681,0.0014516858662357995,-0.000875493936292198,0
294,0.011759999999999993,5.001365152405508,0.0021092655236763236,-0.001533075511070923,0
295,0.011800000000000033,4.999392411494816,0.0007941062093044515,-0.0002179266511280445,0
296,0.011840000000000073,4.99972120164681,0.0004653163810297567,0.00011084418243657032,0
297,0.011880000000000113,4.999392411494816,0.0024380553525874815,-0.0018619223272389723,0
298,0.01191999999999993,4.998406041038327,0.00013652655288240445,0.0004395703878776118,0
299,0.01195999999999997,4.999392411494816,0.0024380553525874815,-0.0018620030458857716,0
300,0.01200000000000001,5.002022732708393,-0.0015074225859438989,0.0020834217061822032,0
301,0.01204000000000005,4.999063621342738,0.003424424840084442,-0.0028484874615859815,0
302,0.01208000000000009,4.999392411494816,-0.0008498429307955274,0.0014257100094703344,0
303,0.012119999999999909,5.000049991798719,0.0014516858662357995,-0.0008758976482117497,0
304,0.012159999999999949,4.99972120164681,0.001122896037706475,-0.0005471952438394802,0
305,0.012199999999999989,4.99972120164681,0.0021092655236763236,-0.0015336607200876762,0
306,0.012240000000000029,4.99972120164681,0.0014516858662357995,-0.0008761856215975352,0
307,0.012280000000000069,5.000049991798719,0.001780475694892425,-0.0012050885803629925,0
308,0.012320000000000109,5.000378781950543,0.0021092655236763236,-0.001534000112836199,0
309,0.012359999999999927,4.999392411494816,0.001122896037706475,-0.0005477609064937015,0
310,0.012399999999999967,5.000378781950543,0.0004653163810297567,0.00010967989232457589,0
311,0.012440000000000007,5.000378781950543,0.001780475694892425,-0.0012056268598560908,0
312,0.012480000000000047,5.000049991798719,0.0007941062093044515,-0.0002194133952094987,0
313,0.012520000000000087,5.000378781950543,0.0014516858662357995,-0.0008771576578047236,0
314,0.012559999999999905,5.000049991798719,0.0004653163810297567,0.00010903863498059642,0
315,0.012599999999999945,4.99972120164681,0.0014516858662357995,-0.0008775126313725309,0
316,0.012639999999999985,5.000049991798719,0.0007941062093044515,-0.00022012334621926075,0
317,0.012680000000000025,4.99972120164681,0.0004653163810297567,0.0001084675178066835,0
318,0.012720000000000065,5.000049991798719,0.0004653163810297567,0.00010825995931258627,0
319,0.012760000000000105,4.999392411494816,0.0007941062093044515,-0.0002207460234111662,0
320,0.012799999999999923,4.99972120164681,0.001780475694892425,-0.0012073402610476508,0
321,0.012839999999999963,5.000707572102282,0.001122896037706475,-0.0005499939550889883,0
322,0.012880000000000003,5.000378781950543,0.0014516858662357995,-0.0008790257355384622,0
323,0.012920000000000043,4.99972120164681,0.001122896037706475,-0.0005504864610709496,0
324,0.012960000000000083,4.99972120164681,0.001780475694892425,-0.0012083252758438247,0
325,0.0129999999999999,5.000378781950543,0.0007941062093044515,-0.00022222355268594575,0
326,0.01303999999999994,5.000049991798719,0.0007941062093044515,-0.00022249992121180467,0
327,0.01307999999999998,5.000049991798719,0.0007941062093044515,-0.00022278489702051902,0
328,0.01312000000000002,5.000378781950543,0.001122896037706475,-0.0005518683096356425,0
329,0.01316000000000006,4.99972120164681,0.0004653163810297567,0.00010540915336767695,0
330,0.0132000000000001,5.000378781950543,0.0024380553525874815,-0.0018676406223139825,0
331,0.013239999999999919,5.000049991798719,0.00013652655288240445,0.0004335687618921072,0
332,0.013279999999999959,5.000049991798719,0.0014516858662357995,-0.0008819185791940538,0
333,0.013319999999999999,4.99972120164681,0.001780475694892425,-0.0012110450486101276,0
334,0.013360000000000039,5.000049991798719,0.001780475694892425,-0.0012113903031232835,0
335,0.013400000000000079,5.000378781950543,0.001780475694892425,-0.0012117441720512453,0
336,0.013439999999999896,5.000378781950543,0.001780475694892425,-0.0012121066559891364,0
337,0.013479999999999936,4.99972120164681,0.0007941062093044515,-0.0002261082698780815,0
338,0.013519999999999976,5.000378781950543,0.0014516858662357995,-0.0008840676422883955,0
339,0.013560000000000016,4.99972120164681,0.0014516858662357995,-0.0008844559741663126,0
340,0.013600000000000056,5.000049991798719,0.001780475694892425,-0.0012136427514305393,0
341,0.013640000000000096,5.000378781950543,0.001780475694892425,-0.0012140483170323445,0
342,0.013679999999999914,5.000049991798719,0.001780475694892425,-0.001214462499826611,0
343,0.013719999999999954,5.000049991798719,0.0024380553525874815,-0.0018724649576403467,0
344,0.013759999999999994,5.000049991798719,0.0007941062093044515,-0.00022894723186600834,0
345,0.013800000000000034,5.000378781950543,0.0007941062093044515,-0.00022938726676391017,0
346,0.013840000000000074,4.99972120164681,0.001780475694892425,-0.001216205404571753,0
347,0.013879999999999892,5.000049991798719,0.0014516858662357995,-0.0008878728453232355,0
348,0.013919999999999932,4.99972120164681,0.0014516858662357995,-0.0008883387317193201,0
349,0.013959999999999972,5.000049991798719,0.001780475694892425,-0.0012176030634931734,0
350,0.014000000000000012,5.000049991798719,0.0021092655236763236,-0.0015468760117819953,0
351,0.014040000000000052,5.000378781950543,0.0021092655236763236,-0.0015473677472745112,0
352,0.014080000000000092,4.99972120164681,0.001780475694892425,-0.0012190782695039194,0
353,0.01411999999999991,4.99972120164681,0.0007941062093044515,-0.00023321774991650127,0
354,0.01415999999999995,5.000378781950543,0.001780475694892425,-0.0012201048158919524,0
355,0.01419999999999999,5.000049991798719,0.0014516858662357995,-0.0008918411813425859,0
356,0.01424000000000003,4.999392411494816,0.0014516858662357995,-0.000892375988435628,0
357,0.01428000000000007,5.000707572102282,0.0014516858662357995,-0.0008929194077135696,0
358,0.01432000000000011,5.000049991798719,0.0004653163810297567,9.2898046897437e-05,0
359,0.014359999999999928,5.000049991798719,0.0024380553525874815,-0.001880401565637657,0
360,0.014399999999999968,5.000378781950543,0.001122896037706475,-0.0005658115011146062,0
361,0.014440000000000008,5.000707572102282,0.001780475694892425,-0.0012239690169703224,0
362,0.014480000000000048,5.000049991798719,0.0027668451816259126,-0.002210924969549563,0
363,0.014520000000000088,4.99972120164681,0.001122896037706475,-0.0005675708974489557,0
364,0.014559999999999906,5.000049991798719,0.0024380553525874815,-0.0018833338888518411,0
365,0.014599999999999946,5.000707572102282,0.0024380553525874815,-0.0018839461687395974,0
366,0.014639999999999986,5.000049991798719,0.001780475694892425,-0.0012269873928938246,0
367,0.014680000000000026,4.999392411494816,0.001780475694892425,-0.0012276168752330802,0
368,0.014720000000000066,5.000049991798719,0.0021092655236763236,-0.0015570447853074142,0
369,0.014760000000000106,5.000049991798719,0.0014516858662357995,-0.0009001118065024504,0
370,0.014799999999999924,5.000049991798719,0.0027668451816259126,-0.0022159263961999015,0
371,0.014839999999999964,5.000378781950543,0.0021092655236763236,-0.0015590106064887676,0
372,0.014880000000000004,5.000378781950543,0.0014516858662357995,-0.0009021034094098045,0
373,0.014920000000000044,4.99972120164681,0.0014516858662357995,-0.0009027844600190842,0
374,0.014960000000000084,5.000378781950543,0.0021092655236763236,-0.0015610537563738175,0
375,0.014999999999999902,5.000707572102282,0.0021092655236763236,-0.0015617519815827382,0
376,0.015039999999999942,5.000049991798719,0.0024380553525874815,-0.001891248619919854,0
377,0.015079999999999982,5.000707572102282,0.0024380553525874815,-0.0018919640114176965,0
378,0.015120000000000022,5.000049991798719,0.0021092655236763236,-0.0015638981538636102,0
379,0.015160000000000062,4.99972120164681,0.0021092655236763236,-0.0015646307027997277,0
380,0.015200000000000102,5.000049991798719,0.0021092655236763236,-0.0015653718269671582,0
381,0.01523999999999992,5.000049991798719,0.0027668451816259126,-0.002223701181900188,0
382,0.01527999999999996,5.000378781950543,0.0024380553525874815,-0.0018956696201783158,0
383,0.01532,4.99972120164681,0.0021092655236763236,-0.001567646626366328,0
384,0.01536000000000004,5.000049991798719,0.001780475694892425,-0.001239632197846071,0
385,0.01540000000000008,4.99972120164681,0.0024380553525874815,-0.0018979958182834497,0
386,0.015439999999999898,4.99972120164681,0.0027668451816259126,-0.0022275781697894226,0
387,0.015479999999999938,4.99972120164681,0.0030956350107915753,-0.002557169078326699,0
388,0.015519999999999978,5.000378781950543,0.001780475694892425,-0.0012428193958143813,0
389,0.015560000000000018,5.000378781950543,0.0024380553525874815,-0.0019012172379549057,0
390,0.015600000000000058,5.000049991798719,0.0024380553525874815,-0.0019020439704346874,0
391,0.0156400000000001,5.000049991798719,0.0021092655236763236,-0.001574089418945547,0
392,0.015679999999999916,4.99972120164681,0.0024380553525874815,-0.0019037230670611123,0
393,0.015719999999999956,4.99972120164681,0.0024380553525874815,-0.0019045754248202833,0
394,0.015759999999999996,5.000378781950543,0.0030956350107915753,-0.002563015976042888,0
395,0.015800000000000036,5.000049991798719,0.0021092655236763236,-0.0015775159138422575,0
396,0.015840000000000076,5.000707572102282,0.001780475694892425,-0.0012496040384380304,0
397,0.015879999999999894,5.000049991798719,0.0021092655236763236,-0.0015792803455677595,0
398,0.015919999999999934,5.000378781950543,0.001780475694892425,-0.0012513855165291118,0
399,0.015959999999999974,5.000378781950543,0.001780475694892425,-0.0012522890340391894,0
400,0.016000000000000014,5.000049991798719,0.0030956350107915753,-0.0025683603815107848,0
401,0.016040000000000054,4.99972120164681,0.0027668451816259126,-0.002240491094209602,0
402,0.016080000000000094,5.000378781950543,0.0024380553525874815,-0.0019126303134894638,0
403,0.016119999999999912,5.000378781950543,0.0021092655236763236,-0.0015847780354442992,0
404,0.016159999999999952,4.99972120164681,0.0027668451816259126,-0.0022433037428335684,0
405,0.016199999999999992,5.000378781950543,0.0024380553525874815,-0.0019154684577665855,0
406,0.016240000000000032,5.000049991798719,0.003424424840084442,-0.0029028009796569277,0
407,0.016280000000000072,5.000049991798719,0.0024380553525874815,-0.0019174030127975359,0
408,0.016320000000000112,5.000049991798719,0.0024380553525874815,-0.0019183830154336167,0
409,0.01635999999999993,5.000378781950543,0.0027668451816259126,-0.002248161324793041,0
410,0.01639999999999997,5.000378781950543,0.001780475694892425,-0.0012627887916839278,0
411,0.01644000000000001,4.99972120164681,0.003424424840084442,-0.0029077433593542295,0
412,0.01648000000000005,5.001036362253937,0.0024380553525874815,-0.001922387758672053,0
413,0.01652000000000009,5.000378781950543,0.0021092655236763236,-0.0015946202763268153,0
414,0.016559999999999908,5.000707572102282,0.0027668451816259126,-0.002253230735940156,0
415,0.016599999999999948,5.000049991798719,0.0021092655236763236,-0.0015966903300308995,0
416,0.016639999999999988,5.000378781950543,0.0030956350107915753,-0.002584107514773859,0
417,0.016680000000000028,5.000049991798719,0.0024380553525874815,-0.0019275839949276965,0
418,0.016720000000000068,5.000049991798719,0.001780475694892425,-0.0012710689113956863,0
419,0.016760000000000108,5.000378781950543,0.0030956350107915753,-0.00258730123226994,0
420,0.016799999999999926,5.000049991798719,0.0030956350107915753,-0.0025883826629960957,0
421,0.016839999999999966,5.000378781950543,0.0030956350107915753,-0.002589472514344351,0
422,0.016880000000000006,5.000707572102282,0.0030956350107915753,-0.002590570781117813,0
423,0.016920000000000046,4.999392411494816,0.0024380553525874815,-0.001934097799847557,0
424,0.016960000000000086,5.000049991798719,0.0024380553525874815,-0.0019352128816090023,0
425,0.016999999999999904,5.000378781950543,0.0024380553525874815,-0.0019363363627973623,0
426,0.017039999999999944,5.000049991798719,0.0024380553525874815,-0.0019374682379440212,0
427,0.017079999999999984,4.99972120164681,0.0021092655236763236,-0.001609818672601291,0
428,0.017120000000000024,5.000049991798719,0.001780475694892425,-0.0012821774902031522,0
429,0.017160000000000064,5.000707572102282,0.0027668451816259126,-0.002269704000467396,0
430,0.017200000000000104,5.000049991798719,0.0027668451816259126,-0.0022708693954029222,0
431,0.017239999999999922,4.99972120164681,0.0014516858662357995,-0.0009568838405449938,0
432,0.017279999999999962,4.99972120164681,0.0030956350107915753,-0.0026020151053536217,0
433,0.017320000000000002,5.000378781950543,0.0027668451816259126,-0.002274415750217627,0
434,0.017360000000000042,4.99972120164681,0.001780475694892425,-0.0012892450852789086,0
435,0.017400000000000082,5.000049991798719,0.001780475694892425,-0.0012904522487592188,0
436,0.0174399999999999,5.000049991798719,0.0027668451816259126,-0.0022780372345111606,0
437,0.01747999999999994,5.000049991798719,0.001780475694892425,-0.0012928915761190496,0
438,0.01751999999999998,5.000378781950543,0.0024380553525874815,-0.0019517033851953708,0
439,0.01756000000000002,5.000049991798719,0.0027668451816259126,-0.002281733682304126,0
440,0.01760000000000006,4.99972120164681,0.0024380553525874815,-0.0019541926316064624,0
441,0.0176400000000001,5.000378781950543,0.0024380553525874815,-0.0019554497137312843,0
442,0.017679999999999918,5.000049991798719,0.001780475694892425,-0.001299135435390961,0
443,0.017719999999999958,5.000378781950543,0.0024380553525874815,-0.0019579887630487773,0
444,0.017759999999999998,5.000378781950543,0.0024380553525874815,-0.0019592707169299554,0
445,0.017800000000000038,5.000049991798719,0.001780475694892425,-0.0013029812902771805,0
446,0.017840000000000078,4.99972120164681,0.0021092655236763236,-0.0016330696204394613,0
447,0.017879999999999896,4.99972120164681,0.0027668451816259126,-0.0022919560432108623,0
448,0.017919999999999936,4.99972120164681,0.0027668451816259126,-0.0022932710645157846,0
449,0.017959999999999976,5.000049991798719,0.0030956350107915753,-0.002623384164441527,0
450,0.018000000000000016,5.000049991798719,0.0021092655236763236,-0.0016383461904459526,0
451,0.018040000000000056,5.000049991798719,0.001780475694892425,-0.001310896109978176,0
452,0.018080000000000096,5.000378781950543,0.0021092655236763236,-0.0016410339150439272,0
453,0.018119999999999914,5.000049991798719,0.0014516858662357995,-0.0009848104545527325,0
454,0.018159999999999954,5.000378781950543,0.0021092655236763236,-0.0016437545222442917,0
455,0.018199999999999994,5.000378781950543,0.001780475694892425,-0.001316337309579875,0
456,0.018240000000000034,5.000049991798719,0.001780475694892425,-0.0013177181240670763,0
457,0.018280000000000074,4.99972120164681,0.0021092655236763236,-0.0016478969581377254,0
458,0.018320000000000114,4.99972120164681,0.001780475694892425,-0.0013205043178045402,0
459,0.018359999999999932,5.000049991798719,0.0021092655236763236,-0.0016506995105001377,0
460,0.018399999999999972,4.999392411494816,0.0027668451816259126,-0.0023096927000520683,0
461,0.018440000000000012,5.000378781950543,0.001122896037706475,-0.0006671652475879379,0
462,0.018480000000000052,5.000049991798719,0.0021092655236763236,-0.0016549645769610634,0
463,0.018520000000000092,5.000707572102282,0.0024380553525874815,-0.0019851923932511966,0
464,0.01855999999999991,5.000049991798719,0.0021092655236763236,-0.0016578486876551854,0
465,0.01859999999999995,5.000049991798719,0.0024380553525874815,-0.0019880927677109125,0
466,0.01863999999999999,5.000378781950543,0.001780475694892425,-0.0013319754808159049,0
467,0.01868000000000003,5.000378781950543,0.0021092655236763236,-0.0016622357918142225,0
468,0.01872000000000007,5.000049991798719,0.001780475694892425,-0.0013349245483508698,0
469,0.01876000000000011,4.99972120164681,0.0014516858662357995,-0.0010076213997455734,0
470,0.018799999999999928,4.99972120164681,0.0014516858662357995,-0.0010091161660852727,0
471,0.018839999999999968,4.99972120164681,0.0024380553525874815,-0.0019969884965555787,0
472,0.018880000000000008,5.000707572102282,0.0024380553525874815,-0.00199849940987668,0
473,0.018920000000000048,4.99972120164681,0.0024380553525874815,-0.002000018383756838,0
474,0.018960000000000088,5.000378781950543,0.0027668451816259126,-0.002330335238524128,0
475,0.018999999999999906,5.000049991798719,0.0027668451816259126,-0.0023318703073244287,0
476,0.019039999999999946,5.000049991798719,0.0024380553525874815,-0.0020046235813136084,0
477,0.019079999999999986,4.99972120164681,0.001780475694892425,-0.001348595051962511,0
478,0.019120000000000026,5.000049991798719,0.0014516858662357995,-0.0010213643679884386,0
479,0.019160000000000066,5.000049991798719,0.0014516858662357995,-0.0010229315199650755,0
480,0.019200000000000106,4.99972120164681,0.001780475694892425,-0.0013532964987811918,0
481,0.019239999999999924,5.000049991798719,0.001780475694892425,-0.001354879637945627,0
482,0.019279999999999964,5.000049991798719,0.0021092655236763236,-0.0016852605856543486,0
483,0.019320000000000004,5.000378781950543,0.0021092655236763236,-0.0016868596750283995,0
484,0.019360000000000044,5.000049991798719,0.0024380553525874815,-0.0020172565543851067,0
485,0.019400000000000084,5.000049991798719,0.0027668451816259126,-0.00234766138549633,0
486,0.019439999999999902,4.99972120164681,0.0027668451816259126,-0.0023492843296856283,0
487,0.019479999999999942,5.000049991798719,0.0021092655236763236,-0.0016933355484646663,0
488,0.019519999999999982,5.000049991798719,0.0021092655236763236,-0.001694974348089044,0
489,0.019560000000000022,4.99972120164681,0.003424424840084442,-0.003011780377307356,0
490,0.019600000000000062,5.000049991798719,0.0027668451816259126,-0.002355855335068597,0
491,0.019640000000000102,5.000707572102282,0.0024380553525874815,-0.0020287280158170057,0
492,0.01967999999999992,5.000707572102282,0.0024380553525874815,-0.002030398409262197,0
493,0.01971999999999996,5.000049991798719,0.001122896037706475,-0.0007169173615098516,0
494,0.01976,5.000378781950543,0.0027668451816259126,-0.0023625526362004174,0
495,0.01980000000000004,5.000707572102282,0.0027668451816259126,-0.0023642466205069474,0
496,0.01984000000000008,5.000378781950543,0.0014516858662357995,-0.0010507891327856769,0
497,0.019879999999999898,5.000049991798719,0.0021092655236763236,-0.0017100784510182911,0
498,0.019919999999999938,4.999392411494816,0.0004653163810297567,-6.78467919820857e-05,0
499,0.019959999999999978,5.001036362253937,0.0007941062093044515,-0.0003983619163145614,0
500,0.020000000000000018,4.999392411494816,0.0014516858662357995,-0.0010576746713144487,0
501,0.020040000000000058,5.000049991798719,0.00013652655288240445,0.0002557437524620754,0
502,0.020080000000000098,5.000049991798719,0.003424424840084442,-0.0030339032052570237,0
503,0.020119999999999916,5.000049991798719,0.0007941062093044515,-0.0004053410153004996,0
504,0.020159999999999956,5.000378781950543,0.001780475694892425,-0.001393474701318941,0
505,0.020199999999999996,4.999392411494816,0.001780475694892425,-0.0013952466505914736,0
506,0.020240000000000036,5.000049991798719,0.0027668451816259126,-0.002383395824609126,0
507,0.020280000000000076,5.000378781950543,0.001122896037706475,-0.0007412340950896201,0
508,0.020319999999999894,5.000707572102282,0.004082004499051814,-0.0037021376869894006,0
509,0.020359999999999934,4.998406041038327,0.0007941062093044515,-0.00041604223292441385,0
510,0.020399999999999974,5.002351522859708,0.0014516858662357995,-0.0010754324195742068,0
511,0.020440000000000014,4.998406041038327,0.0021092655236763236,-0.0017348302896121688,0
512,0.020480000000000054,4.997419670581074,0.0004653163810297567,-9.270703121979414e-05,0
513,0.020520000000000094,5.001036362253937,0.003424424840084442,-0.0030536490348980812,0
514,0.02055999999999991,4.999063621342738,0.004082004499051814,-0.003713069887506095,0
515,0.02059999999999995,4.998406041038327,0.00013652655288240445,0.00023055922742298667,0
516,0.02063999999999999,5.000049991798719,0.0021092655236763236,-0.0017440362007286655,0
517,0.02068000000000003,4.99972120164681,0.0021092655236763236,-0.0017459002726566825,0
518,0.02072000000000007,4.999392411494816,0.001780475694892425,-0.0014189821187591662,0
519,0.02076000000000011,4.99972120164681,0.0024380553525874815,-0.0020784410426223222,0
520,0.02079999999999993,5.000049991798719,0.0014516858662357995,-0.0010939584019791422,0
521,0.02083999999999997,5.000707572102282,0.003753214669504526,-0.0033973816186908474,0
522,0.02088000000000001,5.000378781950543,0.0014516858662357995,-0.001097754784729121,0
523,0.02092000000000005,5.000049991798719,0.001780475694892425,-0.0014284541266218194,0
524,0.02096000000000009,5.000049991798719,0.001780475694892425,-0.0014303711717876181,0
525,0.020999999999999908,5.000049991798719,0.001122896037706475,-0.0007747160796334951,0
526,0.021039999999999948,5.000378781950543,0.0007941062093044515,-0.00044785832400134895,0
527,0.021079999999999988,5.000049991798719,0.0027668451816259126,-0.002422536864638548,0
528,0.021120000000000028,4.99972120164681,0.001780475694892425,-0.0014381144295103282,0
529,0.021160000000000068,4.99972120164681,0.0007941062093044515,-0.00045369946649673676,0
530,0.021200000000000108,5.000049991798719,0.001780475694892425,-0.0014420309332437754,0
531,0.021239999999999926,4.99972120164681,0.0014516858662357995,-0.0011152105318825308,0
532,0.021279999999999966,5.000049991798719,0.0024380553525874815,-0.0021035568791536634,0
533,0.021320000000000006,5.000378781950543,0.001780475694892425,-0.001447961503426082,0
534,0.021360000000000046,5.000049991798719,0.0014516858662357995,-0.0011211633651451753,0
535,0.021400000000000086,4.999392411494816,0.0014516858662357995,-0.0011231624512256918,0
536,0.021439999999999904,5.000049991798719,0.001780475694892425,-0.0014539587489005971,0
537,0.021479999999999944,5.000378781950543,0.0014516858662357995,-0.0011271827593694593,0
538,0.021519999999999984,4.99972120164681,0.0021092655236763236,-0.0017867836131486702,0
539,0.021560000000000024,5.000378781950543,0.0014516858662357995,-0.001131232496302653,0
540,0.021600000000000064,5.000378781950543,0.001122896037706475,-0.0008044785396029656,0
541,0.021640000000000104,5.000378781950543,0.001780475694892425,-0.0014641013867697677,0
542,0.02167999999999992,4.99972120164681,0.0014516858662357995,-0.0011373620530981477,0
543,0.02171999999999996,5.000378781950543,0.0021092655236763236,-0.0017969994973176958,0
544,0.02176,4.999392411494816,0.0024380553525874815,-0.002127854391528771,0
545,0.02180000000000004,5.000378781950543,0.001780475694892425,-0.001472347064318481,0
546,0.02184000000000008,5.000049991798719,0.0021092655236763236,-0.0018032164753731127,0
547,0.0218799999999999,5.000049991798719,0.0014516858662357995,-0.0011477236385276453,0
548,0.02191999999999994,5.000049991798719,0.0014516858662357995,-0.0011498176839227026,0
549,0.02195999999999998,5.000049991798719,0.0014516858662357995,-0.0011519189405308447,0
550,0.02200000000000002,5.000378781950543,0.0004653163810297567,-0.00016765790949660334,0
551,0.02204000000000006,5.000378781950543,0.001122896037706475,-0.00082735320419693,0
552,0.0220800000000001,5.000049991798719,0.0014516858662357995,-0.0011582658408274763,0
553,0.022119999999999918,5.000049991798719,0.0007941062093044515,-0.0005028161482385114,0
554,0.022159999999999958,4.99972120164681,0.0021092655236763236,-0.001820112569295295,0
555,0.022199999999999998,5.000049991798719,0.0021092655236763236,-0.0018222568043620132,0
556,0.022240000000000038,5.000378781950543,0.0021092655236763236,-0.0018244081537878048,0
557,0.022280000000000078,5.000049991798719,0.0021092655236763236,-0.0018265666034880134,0
558,0.022319999999999895,4.99972120164681,0.0021092655236763236,-0.0018287321393161498,0
559,0.022359999999999935,5.000049991798719,0.001780475694892425,-0.0015021149182800786,0
560,0.022399999999999975,5.000049991798719,0.0014516858662357995,-0.001175504755021081,0
561,0.022440000000000015,4.99972120164681,0.001780475694892425,-0.001506481292393677,0
562,0.022480000000000055,5.000378781950543,0.0014516858662357995,-0.0011798852013784333,0
563,0.022520000000000095,4.99972120164681,0.0021092655236763236,-0.001839665610931423,0
564,0.022559999999999913,5.000378781950543,0.001780475694892425,-0.0015130835342154491,0
565,0.022599999999999953,4.99972120164681,0.0014516858662357995,-0.0011865084430053737,0
566,0.022639999999999993,4.99972120164681,0.001122896037706475,-0.0008599403226632705,0
567,0.022680000000000033,5.000049991798719,0.0021092655236763236,-0.001848538472862032,0
568,0.022720000000000073,5.000049991798719,0.0021092655236763236,-0.001850774078372724,0
569,0.022760000000000113,5.000049991798719,0.001122896037706475,-0.0008666471243745843,0
570,0.02279999999999993,5.000049991798719,0.001780475694892425,-0.0015264762251117362,0
571,0.02283999999999997,5.000707572102282,0.001780475694892425,-0.0015287325653002485,0
572,0.02288000000000001,4.99972120164681,0.001122896037706475,-0.0008734161299373674,0
573,0.02292000000000005,4.999392411494816,0.001122896037706475,-0.0008756862183317636,0
574,0.02296000000000009,5.000049991798719,0.0014516858662357995,-0.0012067529867032063,0
575,0.02299999999999991,5.000049991798719,0.001122896037706475,-0.0008802469342798322,0
576,0.02303999999999995,5.000049991798719,0.001780475694892425,-0.0015401171885914811,0
577,0.02307999999999999,5.000049991798719,0.00013652655288240445,0.00010153455057726295,0
578,0.02312000000000003,5.000049991798719,0.001122896037706475,-0.0008871391274394898,0
579,0.02316000000000007,5.000378781950543,0.001122896037706475,-0.0008894500955595216,0
580,0.02320000000000011,5.000378781950543,0.0004653163810297567,-0.00023418816644633087,0
581,0.023239999999999927,5.000378781950543,0.001122896037706475,-0.000894092294586521,0
582,0.023279999999999967,5.000049991798719,0.0014516858662357995,-0.0012252133228761143,0
583,0.023320000000000007,5.000049991798719,0.001780475694892425,-0.0015563410639271606,0
584,0.023360000000000047,5.000049991798719,0.0014516858662357995,-0.001229895844577068,0
585,0.023400000000000087,4.99972120164681,0.001780475694892425,-0.0015610369636710007,0
586,0.023439999999999905,4.99972120164681,0.0024380553525874815,-0.0022209745770936143,0
587,0.023479999999999945,5.000049991798719,0.0014516858662357995,-0.0012369696958601294,0
588,0.023519999999999985,5.000049991798719,0.0007941062093044515,-0.0005817612774790229,0
589,0.023560000000000025,5.000378781950543,0.001122896037706475,-0.0009129289618458583,0
590,0.023600000000000065,5.000378781950543,0.001122896037706475,-0.0009153134191489905,0
591,0.023640000000000105,5.000707572102282,0.0014516858662357995,-0.0012464942901848485,0
592,0.023679999999999923,4.99972120164681,0.0014516858662357995,-0.0012488919017012968,0
593,0.023719999999999963,5.000049991798719,0.001122896037706475,-0.0009225062374463913,0
594,0.023760000000000003,5.000378781950543,0.001122896037706475,-0.000924916938168488,0
595,0.023800000000000043,5.000049991798719,0.00013652655288240445,5.903532585434419e-05,0
596,0.023840000000000083,5.000049991798719,0.001122896037706475,-0.0009297578834234314,0
597,0.0238799999999999,5.000049991798719,0.0021092655236763236,-0.001918557581014752,0
598,0.02391999999999994,5.000378781950543,0.001122896037706475,-0.0009346247772915232,0
599,0.02395999999999998,5.001036362253937,0.0021092655236763236,-0.001923437399532702,0
600,0.02400000000000002,5.000378781950543,0.001780475694892425,-0.0015970971443867055,0
601,0.02404000000000006,5.000378781950543,0.001780475694892425,-0.0015995531386754453,0
602,0.0240800000000001,5.000378781950543,0.0027668451816259126,-0.002588385023575295,0
603,0.02411999999999992,5.000378781950543,0.001122896037706475,-0.000946904664869257,0
604,0.02415999999999996,5.000378781950543,0.001780475694892425,-0.0016069594774278015,0
605,0.0242,5.000378781950543,0.001780475694892425,-0.0016094409860146095,0
606,0.02424000000000004,4.999392411494816,0.001780475694892425,-0.00161192883081362,0
607,0.02428000000000008,5.000378781950543,0.001122896037706475,-0.0009568433375799559,0
608,0.024319999999999897,5.000378781950543,0.0021092655236763236,-0.001945713289539631,0
609,0.024359999999999937,4.99972120164681,0.001122896037706475,-0.0009618505544247333,0
610,0.024399999999999977,5.000707572102282,0.0021092655236763236,-0.0019507330588856644,0
611,0.024440000000000017,5.000049991798719,0.001780475694892425,-0.0016244624989435372,0
612,0.024480000000000057,5.000378781950543,0.0007941062093044515,-0.0006406185152062426,0
613,0.024520000000000097,4.999392411494816,0.001780475694892425,-0.0016295197182557989,0
614,0.024559999999999915,5.000378781950543,0.001780475694892425,-0.001632057633874187,0
615,0.024599999999999955,5.000378781950543,0.001122896037706475,-0.0009770220729533442,0
616,0.024639999999999995,5.000049991798719,0.0014516858662357995,-0.0013083621608285393,0
617,0.024680000000000035,4.99972120164681,0.0014516858662357995,-0.0013109185656334742,0
618,0.024720000000000075,5.000049991798719,0.001780475694892425,-0.001642270926876775,0
619,0.024759999999999893,5.001036362253937,0.001122896037706475,-0.0009872599123264161,0
620,0.024799999999999933,5.000378781950543,0.0007941062093044515,-0.0006610448188206889,0
621,0.024839999999999973,5.000707572102282,0.0021092655236763236,-0.0019787849425060905,0
622,0.024880000000000013,5.000378781950543,0.001122896037706475,-0.0009950023223683935,0
623,0.024920000000000053,5.000378781950543,0.0014516858662357995,-0.0013263850552948538,0
624,0.024960000000000093,5.000049991798719,0.0024380553525874815,-0.002315353466600121,0
625,0.02499999999999991,5.000378781950543,0.001122896037706475,-0.0010027990791658418,0
626,0.02503999999999995,5.000378781950543,0.0021092655236763236,-0.0019917794769575975,0
627,0.02507999999999999,5.000378781950543,0.0024380553525874815,-0.0023231861838933585,0
628,0.02512000000000003,5.000378781950543,0.001780475694892425,-0.001668229352198715,0
629,0.02516000000000007,5.000049991798719,0.0030956350107915753,-0.0029860174237929297,0
630,0.02520000000000011,4.999392411494816,0.003424424840084442,-0.0033174419201402105,0
631,0.02523999999999993,4.99972120164681,0.0021092655236763236,-0.0020049231637565327,0
632,0.02527999999999997,5.000049991798719,0.0021092655236763236,-0.0020075695983077747,0
633,0.02532000000000001,5.000049991798719,0.0021092655236763236,-0.0020102218888888323,0
634,0.02536000000000005,4.99972120164681,0.0024380553525874815,-0.0023416698458602393,0
635,0.02540000000000009,5.000049991798719,0.0024380553525874815,-0.0023443337927955494,0
636,0.025439999999999907,5.000378781950543,0.0024380553525874815,-0.0023470035399484122,0
637,0.025479999999999947,5.000049991798719,0.0021092655236763236,-0.0020208892396969117,0
638,0.025519999999999987,5.000049991798719,0.0027668451816259126,-0.002681150189049071,0
639,0.025560000000000027,5.000049991798719,0.001780475694892425,-0.0016974677376441932,0
640,0.025600000000000067,5.000378781950543,0.0021092655236763236,-0.0020289503268130027,0
641,0.025640000000000107,5.000049991798719,0.0021092655236763236,-0.002031648793331741,0
642,0.025679999999999925,5.000049991798719,0.0021092655236763236,-0.002034352947009224,0
643,0.025719999999999965,5.000049991798719,0.001122896037706475,-0.001050693282848045,0
644,0.025760000000000005,5.000049991798719,0.0014516858662357995,-0.0013821985822373166,0
645,0.025800000000000045,5.000049991798719,0.0024380553525874815,-0.002371289169368102,0
646,0.025840000000000085,5.000378781950543,0.0027668451816259126,-0.0027028057099205906,0
647,0.025879999999999903,5.000378781950543,0.001122896037706475,-0.0010615888690140138,0
648,0.025919999999999943,4.99972120164681,0.001122896037706475,-0.0010643267442377077,0
649,0.025959999999999983,5.000049991798719,0.001780475694892425,-0.001724649829518538,0
650,0.026000000000000023,4.99972120164681,0.0007941062093044515,-0.0007410293055054448,0
651,0.026040000000000063,4.99972120164681,0.0027668451816259126,-0.0027165227534391855,0
652,0.026080000000000103,4.999392411494816,0.001780475694892425,-0.0017329132368615126,0
653,0.02611999999999992,4.99972120164681,0.0027668451816259126,-0.0027220481687493464,0
654,0.02615999999999996,4.99972120164681,0.0024380553525874815,-0.002396029240267795,0
655,0.0262,5.000049991798719,0.001122896037706475,-0.0010836462616993395,0
656,0.02624000000000004,5.000049991798719,0.0014516858662357995,-0.0014152178425992999,0
657,0.02628000000000008,5.000378781950543,0.0021092655236763236,-0.0020755846487203766,0
658,0.0263199999999999,5.000707572102282,0.0007941062093044515,-0.0007632178595403608,0
659,0.02635999999999994,5.000378781950543,0.0014516858662357995,-0.001423595398325949,0
660,0.02639999999999998,4.99972120164681,0.0004653163810297567,-0.0004400291317374534,0
661,0.02644000000000002,5.000378781950543,0.0024380553525874815,-0.0024155766387269307,0
662,0.02648000000000006,4.99972120164681,0.001122896037706475,-0.0011032311560929087,0
663,0.0265200000000001,5.000378781950543,0.00013652655288240445,-0.00011968078028233792,0
664,0.026559999999999917,4.99972120164681,0.0004653163810297567,-0.0004512949741113971,0
665,0.026599999999999957,4.99972120164681,0.001122896037706475,-0.0011117042329902716,0
666,0.026639999999999997,5.000049991798719,0.0004653163810297567,-0.0004569593948390957,0
667,0.026680000000000037,5.000049991798719,0.0007941062093044515,-0.0007885892377164918,0
668,0.026720000000000077,5.000378781950543,0.0004653163810297567,-0.00046264459982641804,0
669,0.026759999999999895,5.000707572102282,0.0007941062093044515,-0.0007942847739235441,0
670,0.026799999999999935,5.000049991798719,0.0004653163810297567,-0.00046835042651625393,0
671,0.026839999999999975,5.000707572102282,0.001122896037706475,-0.0011287906786639312,0
672,0.026880000000000015,5.000049991798719,0.0021092655236763236,-0.002118025854218437,0
673,0.026920000000000055,5.000378781950543,0.003753214669504526,-0.0037648457632068486,0
674,0.026960000000000095,4.99972120164681,0.0004653163810297567,-0.00047982329088155874,0
675,0.026999999999999913,5.001036362253937,0.001122896037706475,-0.0011402837960627359,0
676,0.027039999999999953,4.999392411494816,0.0007941062093044515,-0.0008143798278380282,0
677,0.027079999999999993,5.000378781950543,-0.00019226327513760522,0.00016909880548367706,0
678,0.027120000000000033,5.000049991798719,0.0007941062093044515,-0.0008201665002443991,0
679,0.027160000000000073,5.000049991798719,0.0014516858662357995,-0.0014806469278026719,0
680,0.027200000000000113,5.000707572102282,0.001780475694892425,-0.0018123424555551164,0
681,0.02723999999999993,5.000378781950543,0.001780475694892425,-0.0018152530622007224,0
682,0.02727999999999997,5.000378781950543,0.0007941062093044515,-0.0008317990698420911,0
683,0.02732000000000001,5.000049991798719,0.0014516858662357995,-0.0014922990855736715,0
684,0.02736000000000005,5.000049991798719,0.001122896037706475,-0.0011664344603559867,0
685,0.02740000000000009,5.000378781950543,0.00013652655288240445,-0.00018299500224898835,0
686,0.02743999999999991,5.000049991798719,0.0007941062093044515,-0.0008435094876412259,0
687,0.02747999999999995,5.000049991798719,0.00013652655288240445,-0.00018886944124398984,0
688,0.02751999999999999,5.000049991798719,0.0007941062093044515,-0.0008493934675009309,0
689,0.02756000000000003,5.000707572102282,0.001122896037706475,-0.0011811324042575156,0
690,0.02760000000000007,5.000049991798719,0.0004653163810297567,-0.0005265065731188815,0
691,0.02764000000000011,5.000378781950543,0.0004653163810297567,-0.0005294650944587696,0
692,0.027679999999999927,5.000378781950543,0.00013652655288240445,-0.00020363846202597403,0
693,0.027719999999999967,5.000378781950543,0.00013652655288240445,-0.00020660631064280165,0
694,0.027760000000000007,5.000378781950543,0.0014516858662357995,-0.0015247381039977929,0
695,0.027800000000000047,5.000049991798719,0.001122896037706475,-0.0011989253652923818,0
696,0.027840000000000087,4.99972120164681,0.0014516858662357995,-0.0015306968718606885,0
697,0.027879999999999905,5.000378781950543,0.001122896037706475,-0.001204893287933531,0
698,0.027919999999999945,5.000049991798719,0.0007941062093044515,-0.0008790942490004945,0
699,0.027959999999999985,5.000378781950543,0.001122896037706475,-0.0012108793899976377,0
700,0.028000000000000025,4.99972120164681,0.0014516858662357995,-0.0015426690324633649,0
701,0.028040000000000065,4.99972120164681,0.0007941062093044515,-0.0008880936689808472,0
702,0.028080000000000105,4.99972120164681,0.0014516858662357995,-0.0015486820770007495,0
703,0.028119999999999923,4.99972120164681,0.0007941062093044515,-0.0008941156068812918,0
704,0.028159999999999963,5.000378781950543,-0.0008498429307955274,0.0007468159326433775,0
705,0.028200000000000003,4.99972120164681,0.00013652655288240445,-0.00024257554336999925,0
706,0.028240000000000043,5.000049991798719,-0.0008498429307955274,0.000740767578258831,0
707,0.028280000000000083,5.000049991798719,-0.00019226327513760522,8.01572129276746e-05,0
708,0.0283199999999999,4.99972120164681,0.001780475694892425,-0.0018956167922673278,0
709,0.02835999999999994,5.000707572102282,-0.0008498429307955274,0.0007316624949390176,0
710,0.02839999999999998,5.000378781950543,0.00013652655288240445,-0.0002577506083194926,0
711,0.02844000000000002,5.001036362253937,0.0004653163810297567,-0.0005895883148863577,0
712,0.02848000000000006,5.000049991798719,-0.0005210531030302584,0.0003937290542174734,0
713,0.0285200000000001,4.998406041038327,-0.0005210531030302584,0.0003906727250689449,0
714,0.02855999999999992,5.001693942556992,-0.0005210531030302584,0.00038761220411429173,0
715,0.02859999999999996,4.99972120164681,-0.0018362124133269458,0.0016997068240781473,0
716,0.02864,5.001036362253937,-0.0031513717215847087,0.0030117972950944073,0
717,0.02868000000000004,5.001365152405508,-0.002165002240582567,0.0020223548524529876,0
718,0.02872000000000008,5.000707572102282,-0.0047953208540382625,0.004649596402423741,0
719,0.028759999999999897,5.002351522859708,-0.00019226327513760522,4.345768078564769e-05,0
720,0.028799999999999937,4.999392411494816,-0.0024937920677107622,0.002341901274002918,0
721,0.028839999999999977,5.001365152405508,-0.0024937920677107622,0.002338812040703356,0
722,0.028880000000000017,5.000707572102282,-0.0024937920677107622,0.002335718796175442,0
723,0.028920000000000057,5.001036362253937,-0.0024937920677107622,0.0023326215631748895,0
724,0.028960000000000097,4.999392411494816,-0.0015074225859438989,0.00134315088273077,0
725,0.028999999999999915,5.000707572102282,-0.0024937920677107622,0.0023264152229796643,0
726,0.029039999999999955,5.000378781950543,-0.0018362124133269458,0.0016657265071130566,0
727,0.029079999999999995,5.000049991798719,-0.0018362124133269458,0.001662613548581058,0
728,0.029120000000000035,5.000707572102282,-0.0024937920677107622,0.002317076370338845,0
729,0.029160000000000075,5.000707572102282,-0.0024937920677107622,0.002313955686613355,0
730,0.029200000000000115,5.000707572102282,-0.0024937920677107622,0.002310831174822188,0
731,0.029239999999999933,5.000378781950543,-0.0028225818947114484,0.0026364926850388605,0
732,0.029279999999999973,5.000378781950543,-0.0024937920677107622,0.002304570759373027,0
733,0.029320000000000013,4.99972120164681,-0.0024937920677107622,0.002301434901977161,0
734,0.029360000000000053,5.000378781950543,-0.0024937920677107622,0.002298295309039539,0
735,0.029400000000000093,5.000049991798719,-0.002165002240582567,0.0019663621766592915,0
736,0.02943999999999991,4.99972120164681,-0.0024937920677107622,0.0022920050094865324,0
737,0.02947999999999995,5.000707572102282,-0.0018362124133269458,0.0016312746950564124,0
738,0.02951999999999999,4.99972120164681,-0.0018362124133269458,0.001628120392606167,0
739,0.02956000000000003,5.000049991798719,-0.0024937920677107622,0.0022825421255148817,0
740,0.02960000000000007,5.000049991798719,-0.0008498429307955274,0.0006354314715162727,0
741,0.02964000000000011,5.000049991798719,-0.0018362124133269458,0.0016186358648099448,0
742,0.02967999999999993,4.99972120164681,-0.0008498429307955274,0.0006290977443774567,0
743,0.02971999999999997,4.99972120164681,-0.0018362124133269458,0.0016122950638724938,0
744,0.02976000000000001,4.99972120164681,-0.0024937920677107622,0.002266699053649419,0
745,0.02980000000000005,5.000378781950543,-0.0015074225859438989,0.0012771504293065629,0
746,0.02984000000000009,5.000378781950543,-0.0028225818947114484,0.0025891271411668474,0
747,0.029879999999999907,5.000378781950543,-0.0018362124133269458,0.001599571632217891,0
748,0.029919999999999947,4.999392411494816,-0.0015074225859438989,0.0012675923703233483,0
749,0.029959999999999987,5.000378781950543,-0.0018362124133269458,0.0015931893799938962,0
750,0.030000000000000027,4.99972120164681,-0.001178632758433426,0.0009324135479686294,0
751,0.030040000000000067,5.000049991798719,-0.0015074225859438989,0.0012580038627453918,0
752,0.030080000000000107,5.000049991798719,-0.0018362124133269458,0.001583590865645405,0
753,0.030119999999999925,5.000049991798719,-0.0005210531030302584,0.00026522544300417545,0
754,0.030159999999999965,5.000049991798719,-0.0008498429307955274,0.0005908058944861989,0
755,0.030200000000000005,5.000049991798719,-0.0018362124133269458,0.0015739627607532867,0
756,0.030240000000000045,5.000049991798719,-0.001178632758433426,0.0009131672736065965,0
757,0.030280000000000085,5.000378781950543,-0.001178632758433426,0.000909948249391269,0
758,0.030319999999999903,5.001036362253937,-0.0008498429307955274,0.0005779362296368292,0
759,0.030359999999999943,5.000378781950543,-0.0005210531030302584,0.0002459210659488232,0
760,0.030399999999999983,5.000378781950543,-0.0018362124133269458,0.001557851920645486,0
761,0.030440000000000023,5.000049991798719,-0.001178632758433426,0.000897040714637273,0
762,0.030480000000000063,5.000378781950543,-0.00019226327513760522,-9.256339109176665e-05,0
763,0.030520000000000103,5.000049991798719,-0.001178632758433426,0.0008905684226817976,0
764,0.03055999999999992,5.000049991798719,-0.001178632758433426,0.000887327730333156,0
765,0.03059999999999996,5.000378781950543,-0.001178632758433426,0.0008840840394537567,0
766,0.03064,4.99972120164681,-0.0015074225859438989,0.0012096272018824927,0
767,0.03068000000000004,5.000049991798719,-0.00019226327513760522,-0.0001087817238468476,0
768,0.03072000000000008,4.99972120164681,-0.001178632758433426,0.0008743352190780586,0
769,0.0307599999999999,5.000049991798719,-0.001178632758433426,0.0008710797776849538,0
770,0.03079999999999994,5.000707572102282,-0.001178632758433426,0.0008678214597273798,0
771,0.03083999999999998,5.000049991798719,-0.002165002240582567,0.001850929771844056,0
772,0.03088000000000002,4.99972120164681,-0.0018362124133269458,0.0015188759470023273,0
773,0.03092000000000006,5.000049991798719,-0.0018362124133269458,0.0015156091464152966,0
774,0.0309600000000001,4.999392411494816,-0.002165002240582567,0.001841129394666973,0
775,0.030999999999999917,5.000049991798719,-0.0008498429307955274,0.0005226977520741825,0
776,0.031039999999999957,4.99972120164681,-0.0018362124133269458,0.0015057921726440557,0
777,0.031079999999999997,5.000049991798719,-0.00019226327513760522,-0.0001414347319858836,0
778,0.031120000000000037,4.99972120164681,-0.001178632758433426,0.0008416543050975557,0
779,0.031160000000000077,5.000049991798719,-0.001178632758433426,0.0008383712038510132,0
780,0.031199999999999894,5.000049991798719,-0.0008498429307955274,0.0005062956447001874,0
781,0.031239999999999934,5.000049991798719,-0.0005210531030302584,0.00017421747995334966,0
782,0.031279999999999974,5.000049991798719,-0.0018362124133269458,0.001486085872627345,0
783,0.031320000000000014,4.99972120164681,-0.001178632758433426,0.0008252127443271168,0
784,0.031360000000000054,4.99972120164681,-0.0005210531030302584,0.00016433708461972238,0
785,0.031400000000000095,5.000049991798719,-0.001178632758433426,0.0008186182297368462,0
786,0.03143999999999991,5.000378781950543,-0.0015074225859438989,0.0011441070659241733,0
787,0.03147999999999995,5.000707572102282,-0.0018362124133269458,0.0014695934459205047,0
788,0.03151999999999999,5.000049991798719,-0.0008498429307955274,0.0004799180849409579,0
789,0.03156000000000003,5.000049991798719,-0.0015074225859438989,0.0011341894556103748,0
790,0.03160000000000007,4.99972120164681,-0.0015074225859438989,0.001130878790159422,0
791,0.03164000000000011,4.99972120164681,-0.001178632758433426,0.0007987759413128698,0
792,0.03167999999999993,5.000378781950543,-0.001178632758433426,0.0007954605892063862,0
793,0.03171999999999997,5.000707572102282,-0.0028225818947114484,0.0024360920677498985,0
794,0.03176000000000001,5.000378781950543,-0.001178632758433426,0.0007888229932791835,0
795,0.03180000000000005,5.000378781950543,-0.0015074225859438989,0.0011142906273358861,0
796,0.03184000000000009,5.000049991798719,-0.0015074225859438989,0.0011109662038452258,0
797,0.03187999999999991,5.000707572102282,-0.0005210531030302584,0.00012127009265510395,0
798,0.03191999999999995,4.99972120164681,-0.0015074225859438989,0.0011043107677841991,0
799,0.03195999999999999,5.000049991798719,-0.0008498429307955274,0.00044340015064747316,0
800,0.03200000000000003,4.99972120164681,-0.0008498429307955274,0.00044006705978585605,0
801,0.03204000000000007,5.000378781950543,-0.0018362124133269458,0.001423101347939041,0
802,0.03208000000000011,4.99972120164681,-0.001178632758433426,0.0007621844205332219,0
803,0.032119999999999926,4.999392411494816,-0.0018362124133269458,0.0014164247501886281,0
804,0.032159999999999966,5.000378781950543,-0.0015074225859438989,0.0010842935702754138,0
805,0.032200000000000006,5.000049991798719,-0.0015074225859438989,0.0010809502159122597,0
806,0.032240000000000046,4.99972120164681,-0.0008498429307955274,0.0004200252300519282,0
807,0.032280000000000086,5.000378781950543,-0.0005210531030302584,8.788812073498781e-05,0
808,0.032319999999999904,4.99972120164681,-0.001178632758433426,0.0007421185692805843,0
809,0.032359999999999944,4.99972120164681,-0.001178632758433426,0.0007387674626754455,0
810,0.032399999999999984,5.000378781950543,-0.0015074225859438989,0.0010642043094158604,0
811,0.032440000000000024,5.000378781950543,-0.0008498429307955274,0.00040326982493927937,0
812,0.032480000000000064,5.000049991798719,-0.001178632758433426,0.0007287030003215,0
813,0.032520000000000104,5.000378781950543,-0.0015074225859438989,0.0010541343783032292,0
814,0.03255999999999992,5.000378781950543,-0.0008498429307955274,0.0003931945020309693,0
815,0.03259999999999996,5.000049991798719,-0.0008498429307955274,0.00038983253501317277,0
816,0.03264,5.000378781950543,-0.0008498429307955274,0.00038646884782582316,0
817,0.03268000000000004,5.000049991798719,-0.001178632758433426,0.000711893293854089,0
818,0.03272000000000008,4.99972120164681,-0.0005210531030302584,5.094658818898955e-05,0
819,0.0327599999999999,5.000049991798719,-0.0005210531030302584,4.757789506725375e-05,0
820,0.03279999999999994,4.99972120164681,-0.0008498429307955274,0.0003729974126657895,0
821,0.03283999999999998,4.99972120164681,0.0004653163810297567,-0.0009455338005343089,0
822,0.03288000000000002,5.000378781950543,-0.001178632758433426,0.0006950418722047974,0
823,0.03292000000000006,5.000378781950543,-0.00019226327513760522,-0.0002947026172838308,0
824,0.0329600000000001,5.000378781950543,-0.0008498429307955274,0.0003595005186145826,0
825,0.03299999999999992,4.99972120164681,-0.002165002240582567,0.0016712818209987453,0
826,0.03303999999999996,5.000049991798719,-0.0015074225859438989,0.001010322697258265,0
827,0.03308,5.000378781950543,-0.0008498429307955274,0.00034936213727446744,0
828,0.03312000000000004,4.99972120164681,-0.0015074225859438989,0.0010035594778398129,0
829,0.03316000000000008,5.000049991798719,-0.0008498429307955274,0.000342596124367317,0
830,0.033199999999999896,5.000707572102282,-0.001178632758433426,0.000668000895966773,0
831,0.033239999999999936,5.000049991798719,-0.0015074225859438989,0.0009934043357713441,0
832,0.033279999999999976,5.000049991798719,-0.001178632758433426,0.0006612268149542419,0
833,0.033320000000000016,5.000049991798719,-0.0008498429307955274,0.0003290480144953825,0
834,0.033360000000000056,4.99972120164681,-0.0008498429307955274,0.0003256577882659505,0
835,0.033400000000000096,5.000049991798719,-0.001178632758433426,0.0006510561623910631,0
836,0.033439999999999914,5.000049991798719,-0.0008498429307955274,0.00031887368010119314,0
837,0.033479999999999954,4.99972120164681,-0.0008498429307955274,0.00031547985047304975,0
838,0.033519999999999994,5.000049991798719,-0.0005210531030302584,-1.6704955714882865e-05,0
839,0.033560000000000034,5.000049991798719,-0.0005210531030302584,-2.0101056731984686e-05,0
840,0.033600000000000074,5.000049991798719,-0.0015074225859438989,0.000962871228788425,0
841,0.033640000000000114,5.000378781950543,0.00013652655288240445,-0.0006844761775709057,0
842,0.03367999999999993,4.99972120164681,-0.0008498429307955274,0.00029849399468834096,0
843,0.03371999999999997,5.000707572102282,-0.001178632758433426,0.0006238834932936481,0
844,0.03376000000000001,4.99972120164681,-0.0018362124133269458,0.001278061827829819,0
845,0.03380000000000005,5.000378781950543,-0.001178632758433426,0.0006170798875605357,0
846,0.03384000000000009,5.000049991798719,-0.0005210531030302584,-4.3902991913483385e-05,0
847,0.03387999999999991,5.000049991798719,-0.0015074225859438989,0.0009390623545743244,0
848,0.03391999999999995,5.000049991798719,-0.00019226327513760522,-0.0003795019786561008,0
849,0.03395999999999999,4.99972120164681,-0.0005210531030302584,-5.4118032812835266e-05,0
850,0.03400000000000003,5.000378781950543,-0.0005210531030302584,-5.7524748098274504e-05,0
851,0.03404000000000007,4.99972120164681,-0.0005210531030302584,-6.0932270214611624e-05,0
852,0.03408000000000011,4.99972120164681,-0.0008498429307955274,0.000264449255024318,0
853,0.03411999999999993,5.000378781950543,-0.0005210531030302584,-6.774962924086252e-05,0
854,0.03415999999999997,5.000049991798719,-0.0015074225859438989,0.0009152100696510487,0
855,0.03420000000000001,4.99972120164681,-0.0015074225859438989,0.000911799584574375,0
856,0.03424000000000005,4.99972120164681,-0.0008498429307955274,0.00025080876977616267,0
857,0.03428000000000009,5.000049991798719,-0.001178632758433426,0.0005761867896875242,0
858,0.034319999999999906,5.000049991798719,-0.001178632758433426,0.0005727743603952504,0
859,0.034359999999999946,4.99972120164681,-0.0008498429307955274,0.0002405715084245778,0
860,0.034399999999999986,5.000707572102282,-0.001178632758433426,0.000565947743228507,0
861,0.034440000000000026,5.000049991798719,-0.0008498429307955274,0.00023374378080860735,0
862,0.034480000000000066,5.000049991798719,-0.001178632758433426,0.0005591189582832851,0
863,0.034520000000000106,5.000049991798719,-0.001178632758433426,0.0005557038193190961,0
864,0.034559999999999924,5.000378781950543,-0.0008498429307955274,0.00022349839050951874,0
865,0.034599999999999964,5.000378781950543,-0.0008498429307955274,0.0002200823537368456,0
866,0.034640000000000004,4.99972120164681,-0.0005210531030302584,-0.00011212391978278812,0
867,0.034680000000000044,4.99972120164681,-0.00019226327513760522,-0.00044433057577960124,0
868,0.034720000000000084,4.99972120164681,-0.0008498429307955274,0.00020983189606864577,0
869,0.0347599999999999,5.000049991798719,-0.001178632758433426,0.000535204210847809,0
870,0.03479999999999994,5.000049991798719,-0.0008498429307955274,0.00020299656797052922,0
871,0.03483999999999998,5.000049991798719,-0.001178632758433426,0.0005283683046685626,0
872,0.03488000000000002,5.000049991798719,-0.0005210531030302584,-0.0001326296906832543,0
873,0.03492000000000006,5.000049991798719,-0.0015074225859438989,0.0008503212299759736,0
874,0.0349600000000001,5.000378781950543,-0.001178632758433426,0.0005181126446194615,0
875,0.03499999999999992,5.000378781950543,-0.001178632758433426,0.0005146937179068273,0
876,0.03503999999999996,4.99972120164681,-0.0015074225859438989,0.0008400644765737898,0
877,0.03508,5.000049991798719,-0.001178632758433426,0.0005078554648351231,0
878,0.03512000000000004,5.000378781950543,-0.0008498429307955274,0.0001756463643407982,0
879,0.03516000000000008,4.99972120164681,-0.0008498429307955274,0.00017222702962263925,0
880,0.0351999999999999,4.99972120164681,-0.0005210531030302584,-0.00015998216794618617,0
881,0.03523999999999994,4.99972120164681,-0.0005210531030302584,-0.00016340154604918317,0
882,0.03527999999999998,4.99972120164681,-0.0031513717215847087,0.0024634977128981943,0
883,0.03532000000000002,5.000707572102282,-0.0005210531030302584,-0.00017024021996283776,0
884,0.03536000000000006,5.000378781950543,-0.002165002240582567,0.00147028967539692,0
885,0.0354000000000001,4.99972120164681,-0.001178632758433426,0.00048050104999158144,0
886,0.035439999999999916,5.001693942556992,-0.0008498429307955274,0.00014829220486470805,0
887,0.035479999999999956,4.998734831190575,-0.0018362124133269458,0.001131242822513589,0
888,0.035519999999999996,5.000378781950543,0.00013652655288240445,-0.0008449148291245182,0
889,0.035560000000000036,5.000049991798719,0.0004653163810297567,-0.0011771231363915946,0
890,0.035600000000000076,4.99972120164681,-0.0015074225859438989,0.0007921975846343268,0
891,0.035639999999999894,5.000049991798719,-0.0005210531030302584,-0.00019758988418460397,0
892,0.035679999999999934,4.99972120164681,-0.0005210531030302584,-0.00020100758316972194,0
893,0.035719999999999974,5.000049991798719,-0.00019226327513760522,-0.0005332147962425224,0
894,0.035760000000000014,5.000378781950543,-0.00019226327513760522,-0.000536631840726049,0
895,0.035800000000000054,5.000049991798719,-0.0005210531030302584,-0.00021125868972201168,0
896,0.035840000000000094,5.000707572102282,0.00013652655288240445,-0.0008722546280236667,0
897,0.03587999999999991,5.000049991798719,-0.00019226327513760522,-0.000546880660982107,0
898,0.03591999999999995,5.000049991798719,-0.0008498429307955274,0.00010728358202482364,0
899,0.03595999999999999,4.99972120164681,-0.00019226327513760522,-0.000553711011033933,0
900,0.03600000000000003,5.000378781950543,-0.0005210531030302584,-0.00022833561836369627,0
901,0.03604000000000007,5.000049991798719,0.0004653163810297567,-0.0012181190085340928,0
902,0.03608000000000011,4.99972120164681,0.0004653163810297567,-0.0012215323585936882,0
903,0.03611999999999993,4.99972120164681,0.0004653163810297567,-0.0012249451256588196,0
904,0.03615999999999997,5.000049991798719,0.0004653163810297567,-0.0012283572827810996,0
905,0.03620000000000001,5.000378781950543,0.0007941062093044515,-0.0015605586312823422,0
906,0.03624000000000005,5.000378781950543,-0.0005210531030302584,-0.0002488101753212921,0
907,0.03628000000000009,4.99972120164681,0.0007941062093044515,-0.0015673796532155526,0
908,0.03631999999999991,5.000378781950543,0.0004653163810297567,-0.0012419992727212424,0
909,0.03635999999999995,5.000049991798719,0.0004653163810297567,-0.001245407975753773,0
910,0.03639999999999999,5.000378781950543,-0.0005210531030302584,-0.00026244642300634127,0
911,0.03644000000000003,4.99972120164681,-0.00019226327513760522,-0.000594643383516343,0
912,0.03648000000000007,5.000049991798719,-0.0008498429307955274,5.9529965197726653e-05,0
913,0.03652000000000011,5.000049991798719,0.00013652655288240445,-0.0009302449727695344,0
914,0.036559999999999926,5.000049991798719,-0.001178632758433426,0.0003815097638950615,0
915,0.036599999999999966,5.000707572102282,-0.0008498429307955274,4.9316268229934344e-05,0
916,0.036640000000000006,4.999392411494816,-0.001178632758433426,0.0003747033614526352,0
917,0.036680000000000046,5.000378781950543,-0.0008498429307955274,4.251176000149713e-05,0
918,0.036720000000000086,5.000049991798719,0.0014516858662357995,-0.0022624178232494964,0
919,0.036759999999999904,4.999063621342738,-0.0008498429307955274,3.5711202148816035e-05,0
920,0.036799999999999944,4.999392411494816,0.0024380553525874815,-0.0032555858112862076,0
921,0.036839999999999984,4.99972120164681,-0.0018362124133269458,0.0010152842931525797,0
922,0.036880000000000024,5.001036362253937,0.001122896037706475,-0.0019472207237838921,0
923,0.036920000000000064,4.99972120164681,-0.00019226327513760522,-0.0006354568542734664,0
924,0.036960000000000104,5.001036362253937,-0.003808951374948702,0.0029778369517705775,0
925,0.03699999999999992,4.997419670581074,0.0004653163810297567,-0.001299823921410954,0
926,0.03703999999999996,5.000049991798719,-0.0018362124133269458,0.0009983129593039693,0
927,0.03708,4.999392411494816,-0.00019226327513760522,-0.0006490268619687893,0
928,0.03712000000000004,5.000378781950543,0.00013652655288240445,-0.000981206115517275,0
929,0.03716000000000008,5.000707572102282,0.0030956350107915753,-0.003943702714404084,0
930,0.0371999999999999,4.999392411494816,0.0007941062093044515,-0.0016455607423487791,0
931,0.03723999999999994,5.000049991798719,-0.00019226327513760522,-0.0006625767487988532,0
932,0.03727999999999998,5.000049991798719,0.00013652655288240445,-0.00099475070217878,0
933,0.03732000000000002,4.99972120164681,0.00013652655288240445,-0.0009981334350155136,0
934,0.03736000000000006,5.000049991798719,-0.00019226327513760522,-0.000672724920319852,0
935,0.0374000000000001,5.000049991798719,-0.0005210531030302584,-0.00034731495925194767,0
936,0.03743999999999992,5.000378781950543,-0.0018362124133269458,0.0009644659577046004,0
937,0.03747999999999996,4.99972120164681,0.00013652655288240445,-0.0010116499013776848,0
938,0.03752,5.000049991798719,-0.001178632758433426,0.00030013404451236794,0
939,0.03756000000000004,4.99972120164681,0.0004653163810297567,-0.0013471889059523243,0
940,0.03760000000000008,5.000378781950543,-0.001178632758433426,0.00029338800390765285,0
941,0.037639999999999896,4.99972120164681,-0.001178632758433426,0.0002900173826735114,0
942,0.037679999999999936,5.000378781950543,-0.0005210531030302584,-0.0003709312586274783,0
943,0.037719999999999976,5.000378781950543,-0.00019226327513760522,-0.0007030884101180957,0
944,0.037760000000000016,5.000049991798719,-0.0008498429307955274,-4.8874388798673344e-05,0
945,0.037800000000000056,5.000378781950543,0.0004653163810297567,-0.0013673976187475291,0
946,0.037840000000000096,4.99972120164681,-0.0005210531030302584,-0.000384390309645064,0
947,0.037879999999999914,4.99972120164681,-0.001178632758433426,0.0002698289409130924,0
948,0.037919999999999954,5.000378781950543,0.0007941062093044515,-0.0017062686346155389,0
949,0.037959999999999994,5.000378781950543,-0.0005210531030302584,-0.00039446610608062345,0
950,0.038000000000000034,5.000049991798719,0.0007941062093044515,-0.0017129803512926861,0
951,0.038040000000000074,5.000049991798719,0.00013652655288240445,-0.0010587537498995226,0
952,0.038080000000000114,4.99972120164681,-0.00019226327513760522,-0.0007333150721395528,0
953,0.03811999999999993,4.99972120164681,-0.00019226327513760522,-0.0007366642907162533,0
954,0.03815999999999997,5.000707572102282,-0.0005210531030302584,-0.00041122172280856216,0
955,0.03820000000000001,5.000049991798719,-0.0008498429307955274,-8.577716953442663e-05,0
956,0.03824000000000005,5.000049991798719,-0.0005210531030302584,-0.0004179102594014327,0
957,0.03828000000000009,4.999392411494816,-0.0008498429307955274,-9.246165445967575e-05,0
958,0.03831999999999991,5.000707572102282,-0.00019226327513760522,-0.0007533804667810083,0
959,0.03835999999999995,5.000049991798719,-0.0008498429307955274,-9.913787475168863e-05,0
960,0.03839999999999999,5.000378781950543,-0.001178632758433426,0.0002263170091597401,0
961,0.03844000000000003,4.999392411494816,0.00013652655288240445,-0.0010921750991207037,0
962,0.03848000000000007,5.000049991798719,-0.0005210531030302584,-0.0004379260665588933,0
963,0.03852000000000011,5.000049991798719,-0.0005210531030302584,-0.0004412544894521085,0
964,0.03855999999999993,5.000049991798719,-0.0008498429307955274,-0.00011579085728678686,0
965,0.03859999999999997,5.000049991798719,-0.00019226327513760522,-0.000776694454424219,0
966,0.03864000000000001,4.99972120164681,-0.0008498429307955274,-0.00012243645930688058,0
967,0.03868000000000005,5.000049991798719,0.00013652655288240445,-0.00111212529577687,0
968,0.03872000000000009,4.99972120164681,-0.0008498429307955274,-0.00012907283034197903,0
969,0.038759999999999906,5.000049991798719,-0.0005210531030302584,-0.0004611773150100941,0
970,0.038799999999999946,5.000378781950543,-0.00019226327513760522,-0.0007932794116837561,0
971,0.038839999999999986,5.000049991798719,-0.0008498429307955274,-0.00013900960991311117,0
972,0.038880000000000026,4.999063621342738,0.00013652655288240445,-0.0011286865058226518,0
973,0.038920000000000066,4.99972120164681,-0.0005210531030302584,-0.0004744117937341733,0
974,0.038960000000000106,5.000049991798719,0.00013652655288240445,-0.0011352938983222216,0
975,0.038999999999999924,5.000378781950543,-0.00019226327513760522,-0.0008098039970980285,0
976,0.039039999999999964,5.000049991798719,0.00013652655288240445,-0.0011418912033143301,0
977,0.039080000000000004,5.000378781950543,-0.00019226327513760522,-0.0008163961781821676,0
978,0.039120000000000044,5.000049991798719,-0.0005210531030302584,-0.0004908985511712419,0
979,0.039160000000000084,5.000378781950543,-0.0005210531030302584,-0.000494188123360631,0
980,0.0391999999999999,5.000049991798719,-0.00019226327513760522,-0.0008262648680757833,0
981,0.03923999999999994,4.99972120164681,-0.00019226327513760522,-0.0008295491028687248,0
982,0.03927999999999998,5.000378781950543,-0.001178632758433426,0.00015353885431428614,0
983,0.03932000000000002,4.99972120164681,-0.00019226327513760522,-0.0008361094197759465,0
984,0.03936000000000006,5.000378781950543,-0.0005210531030302584,-0.0005105956207335674,0
985,0.0394000000000001,4.999392411494816,0.0007941062093044515,-0.0018290281733614041,0
986,0.03943999999999992,5.000049991798719,0.00013652655288240445,-0.0011747189420752788,0
987,0.03947999999999996,4.99972120164681,-0.0005210531030302584,-0.0005204068695544308,0
988,0.03952,4.999392411494816,0.00013652655288240445,-0.0011812512405412726,0
989,0.03956000000000004,5.000378781950543,0.0004653163810297567,-0.0015133028888852252,0
990,0.03960000000000008,4.99972120164681,-0.0005210531030302584,-0.0005301923035980853,0
991,0.0396399999999999,5.000378781950543,-0.00019226327513760522,-0.0008622380823077446,0
992,0.03967999999999994,5.000049991798719,0.0004653163810297567,-0.00152307071481832,0
993,0.03971999999999998,5.000049991798719,-0.0005210531030302584,-0.000539951206124235,0
994,0.03976000000000002,5.000049991798719,-0.0008498429307955274,-0.00021440832625876558,0
995,0.03980000000000006,5.000378781950543,-0.001178632758433426,0.00011113760741944783,0
996,0.0398400000000001,5.000049991798719,-0.0008498429307955274,-0.00022089303377911232,0
997,0.039879999999999916,4.999392411494816,0.0004653163810297567,-0.0015392900523224133,0
998,0.039919999999999956,5.000049991798719,-0.00019226327513760522,-0.0008849449696023046,0
999,0.039959999999999996,5.000049991798719,0.00013652655288240445,-0.0012169662113863905,0
1000,0.040000000000000036,5.000378781950543,-0.00019226327513760522,-0.0008914046110507898,0
1001,0.040040000000000076,5.000049991798719,0.0004653163810297567,-0.0015522092824425348,0
1002,0.040080000000000116,5.000378781950543,-0.00019226327513760522,-0.0008978514026755184,0
1003,0.040119999999999933,5.000378781950543,0.00013652655288240445,-0.0012298597419243794,0
1004,0.040159999999999973,5.000049991798719,0.0007941062093044515,-0.0018906546180730982,0
1005,0.040200000000000014,4.99972120164681,0.0007941062093044515,-0.0018938665199838877,0
1006,0.040240000000000054,5.000378781950543,-0.00019226327513760522,-0.0009107055933402252,0
1007,0.040280000000000094,5.000049991798719,-0.00019226327513760522,-0.0009139107807471113,0
1008,0.04031999999999991,5.000049991798719,-0.00019226327513760522,-0.0009171125715009925,0
1009,0.04035999999999995,5.000378781950543,-0.0008498429307955274,-0.0002627312837002703,0
1010,0.04039999999999999,5.000707572102282,0.00013652655288240445,-0.001252295686113073,0
1011,0.04044000000000003,4.99972120164681,-0.00019226327513760522,-0.000926697301498204,0
1012,0.04048000000000007,5.000049991798719,0.00013652655288240445,-0.0012586750714046737,0
1013,0.04052000000000011,5.000049991798719,0.0004653163810297567,-0.0015906493137495185,0
1014,0.04055999999999993,5.000378781950543,-0.0005210531030302584,-0.000607460690046609,0
1015,0.04059999999999997,5.000049991798719,0.00013652655288240445,-0.0012682176263436422,0
1016,0.04064000000000001,5.000049991798719,0.00013652655288240445,-0.0012713913006422118,0
1017,0.04068000000000005,5.000049991798719,-0.00019226327513760522,-0.0009457715147413903,0
1018,0.04072000000000009,5.000049991798719,-0.00019226327513760522,-0.0009489378986073142,0
1019,0.04075999999999991,5.000378781950543,-0.0005210531030302584,-0.0006233107702733485,0
1020,0.04079999999999995,5.000049991798719,-0.00019226327513760522,-0.0009552595873836007,0
1021,0.04083999999999999,5.000049991798719,-0.0005210531030302584,-0.0006296250123539369,0
1022,0.04088000000000003,4.999392411494816,-0.0005210531030302584,-0.0006327765028693335,0
1023,0.04092000000000007,5.000049991798719,-0.0015074225859438989,0.0003504452778487424,0
1024,0.04096000000000011,4.99972120164681,-0.001178632758433426,1.851156241383027e-05,0
1025,0.040999999999999925,4.99972120164681,-0.001178632758433426,1.5371514690649393e-05,0
1026,0.041039999999999965,5.000378781950543,-0.0005210531030302584,-0.0006453443223256711,0
1027,0.041080000000000005,5.000378781950543,-0.0005210531030302584,-0.0006484766119416016,0
1028,0.041120000000000045,5.000378781950543,-0.0005210531030302584,-0.0006516049836948947,0
1029,0.041160000000000085,5.000049991798719,-0.00019226327513760522,-0.0009835192396347768,0
1030,0.0411999999999999,5.000049991798719,-0.00019226327513760522,-0.000986639698154709,0
1031,0.04123999999999994,5.000049991798719,-0.00019226327513760522,-0.0009897561613485127,0
1032,0.04127999999999998,5.000378781950543,-0.00019226327513760522,-0.000992868603439958,0
1033,0.04132000000000002,5.000049991798719,-0.0005210531030302584,-0.0006671871707829751,0
1034,0.04136000000000006,5.000378781950543,-0.00019226327513760522,-0.0009990813213251262,0
1035,0.0414000000000001,4.99972120164681,-0.001178632758433426,-1.5812062385463363e-05,0
1036,0.04143999999999992,5.000378781950543,-0.001178632758433426,-1.890816276454185e-05,0
1037,0.04147999999999996,5.000049991798719,-0.0008498429307955274,-0.00035078994114434085,0
1038,0.04152,4.99972120164681,-0.0015074225859438989,0.00030370193853556456,0
1039,0.04156000000000004,4.999392411494816,-0.0005210531030302584,-0.0006857511189608972,0
1040,0.04160000000000008,5.000049991798719,-0.0005210531030302584,-0.0006888304670701209,0
1041,0.0416399999999999,5.000049991798719,-0.0008498429307955274,-0.00036311573537698024,0
1042,0.04167999999999994,5.000378781950543,-0.0005210531030302584,-0.0006949763816384462,0
1043,0.04171999999999998,5.000049991798719,-0.0008498429307955274,-0.00036925306927947294,0
1044,0.04176000000000002,4.99972120164681,-0.0008498429307955274,-0.00037231525610696334,0
1045,0.04180000000000006,4.99972120164681,-0.00019226327513760522,-0.0010329527445499358,0
1046,0.0418400000000001,5.000049991798719,-0.0005210531030302584,-0.0007072163699617306,0
1047,0.04187999999999992,5.000049991798719,-0.00019226327513760522,-0.001039055246265738,0
1048,0.04191999999999996,4.99972120164681,-0.0005210531030302584,-0.0007133100365047309,0
1049,0.04196,4.99972120164681,-0.0015074225859438989,0.0002700192839175106,0
1050,0.04200000000000004,5.000378781950543,-0.001178632758433426,-6.180622510985553e-05,0
1051,0.04204000000000008,5.000049991798719,-0.001178632758433426,-6.483740034447132e-05,0
1052,0.042079999999999895,5.000707572102282,-0.0018362124133269458,0.0005897156108777982,0
1053,0.042119999999999935,5.000049991798719,-0.001178632758433426,-7.088613086940324e-05,0
1054,0.042159999999999975,5.000049991798719,-0.0018362124133269458,0.0005836760192151145,0
1055,0.042200000000000015,5.000049991798719,-0.00019226327513760522,-0.0010632860165387266,0
1056,0.042240000000000055,5.000049991798719,-0.0005210531030302584,-0.0007375044537937493,0
1057,0.042280000000000095,5.000049991798719,-0.0005210531030302584,-0.0007405080613799686,0
1058,0.04231999999999991,5.000707572102282,-0.0015074225859438989,0.00024286249662564148,0
1059,0.04235999999999995,5.000378781950543,-0.0008498429307955274,-0.00041771137566393537,0
1060,0.04239999999999999,4.99972120164681,-0.002165002240582567,0.0008944584498090578,0
1061,0.04244000000000003,4.99972120164681,-0.001178632758433426,-9.489575879513231e-05,0
1062,0.04248000000000007,5.000378781950543,-0.0008498429307955274,-0.00042666553002595033,0
1063,0.04252000000000011,5.000049991798719,-0.0018362124133269458,0.0005567288167489146,0
1064,0.04255999999999993,5.000049991798719,-0.0008498429307955274,-0.0004326109687575494,0
1065,0.04259999999999997,5.000049991798719,-0.001178632758433426,-0.00010678658639734593,0
1066,0.04264000000000001,4.99972120164681,-0.0008498429307955274,-0.0004385369767292394,0
1067,0.04268000000000005,5.000049991798719,-0.001178632758433426,-0.00011270280434497908,0
1068,0.04272000000000009,5.000049991798719,-0.0018362124133269458,0.0005419261275620224,0
1069,0.04275999999999991,4.99972120164681,-0.0015074225859438989,0.00021019053425624977,0
1070,0.04279999999999995,5.000049991798719,-0.0005210531030302584,-0.0007791197327499427,0
1071,0.04283999999999999,5.000049991798719,-0.001178632758433426,-0.00012447585487326026,0
1072,0.04288000000000003,4.999063621342738,-0.0005210531030302584,-0.000784986256531632,0
1073,0.04292000000000007,5.000049991798719,-0.001178632758433426,-0.0001303322914380558,0
1074,0.04296000000000011,4.999392411494816,-0.001178632758433426,-0.00013325290115877644,0
1075,0.04299999999999993,5.000378781950543,-0.0015074225859438989,0.00019262142183182915,0
1076,0.04303999999999997,4.99972120164681,-0.001178632758433426,-0.00013907878041714372,0
1077,0.04308000000000001,5.000049991798719,-0.001178632758433426,-0.00014198400082542962,0
1078,0.04312000000000005,5.000049991798719,-0.001178632758433426,-0.00014488404238651386,0
1079,0.04316000000000009,5.000378781950543,-0.0028225818947114484,0.0014961702556625573,0
1080,0.043199999999999905,5.000707572102282,-0.0008498429307955274,-0.00047945831869749644,0
1081,0.043239999999999945,5.000378781950543,-0.002165002240582567,0.0008328166328504604,0
1082,0.043279999999999985,5.000049991798719,-0.0008498429307955274,-0.0004852217585830118,0
1083,0.043320000000000025,5.000378781950543,-0.0008498429307955274,-0.00048809553928203604,0
1084,0.043360000000000065,5.000378781950543,-0.001178632758433426,-0.00016217416707402124,0
1085,0.043400000000000105,5.000049991798719,-0.0005210531030302584,-0.0008226169283494225,0
1086,0.04343999999999992,5.000049991798719,-0.0008498429307955274,-0.0004966848326436459,0
1087,0.04347999999999996,5.000049991798719,-0.0015074225859438989,0.0001580424884794594,0
1088,0.04352,4.99972120164681,-0.001178632758433426,-0.00017359425083437053,0
1089,0.04356000000000004,5.000049991798719,-0.0015074225859438989,0.00015235411124833872,0
1090,0.04360000000000008,5.000049991798719,-0.0008498429307955274,-0.0005080615388327059,0
1091,0.0436399999999999,5.000378781950543,-0.0008498429307955274,-0.0005108920391851761,0
1092,0.04367999999999994,4.999392411494816,-0.0008498429307955274,-0.0005137170209069052,0
1093,0.04371999999999998,4.999392411494816,-0.0008498429307955274,-0.0005165364599821192,0
1094,0.04376000000000002,5.000378781950543,-0.0008498429307955274,-0.0005193503324299989,0
1095,0.04380000000000006,5.000707572102282,-0.0018362124133269458,0.00046421086822654416,0
1096,0.0438400000000001,5.000049991798719,-0.001178632758433426,-0.00019617145405851342,0
1097,0.04387999999999992,5.000378781950543,-0.001178632758433426,-0.00019896848309191488,0
1098,0.04391999999999996,4.99972120164681,-0.0018362124133269458,0.0004558198049654191,0
1099,0.04396,4.99972120164681,-0.0008498429307955274,-0.0005333353584018002,0
1100,0.04400000000000004,5.000049991798719,-0.0008498429307955274,-0.0005361153294701521,0
1101,0.04404000000000008,5.000378781950543,-0.001178632758433426,-0.00021009973940238204,0
1102,0.0440799999999999,5.000378781950543,-0.0008498429307955274,-0.0005416580474178895,0
1103,0.04411999999999994,4.99972120164681,-0.0028225818947114484,0.0014283182169705698,0
1104,0.04415999999999998,4.99972120164681,-0.002165002240582567,0.0007679816677851513,0
1105,0.04420000000000002,5.000049991798719,-0.0018362124133269458,0.0004364407735276486,0
1106,0.04424000000000006,5.000049991798719,-0.0024937920677107622,0.0010912752125107404,0
1107,0.0442800000000001,4.99972120164681,-0.002165002240582567,0.0007597460450920672,0
1108,0.044319999999999915,5.000707572102282,-0.0018362124133269458,0.00042822277612770054,0
1109,0.044359999999999955,5.000378781950543,-0.002165002240582567,0.000754285083690005,0
1110,0.044399999999999995,5.000049991798719,-0.002165002240582567,0.0007515635094078418,0
1111,0.044440000000000035,4.99972120164681,-0.0018362124133269458,0.00042005807663877406,0
1112,0.044480000000000075,4.999392411494816,-0.001178632758433426,-0.00024023119168025873,0
1113,0.044520000000000115,4.99972120164681,-0.001178632758433426,-0.00024293478973715088,0
1114,0.04455999999999993,5.001036362253937,-0.0024937920677107622,0.0010695269600938858,0
1115,0.04459999999999997,5.000378781950543,-0.0005210531030302584,-0.0009059035022192477,0
1116,0.04464000000000001,4.99972120164681,-0.0028225818947114484,0.0013929398768069681,0
1117,0.04468000000000005,5.000049991798719,-0.0018362124133269458,0.00040389109086987334,0
1118,0.04472000000000009,4.99972120164681,-0.0018362124133269458,0.00040121791750492733,0
1119,0.04475999999999991,4.99972120164681,-0.002165002240582567,0.0007273407256288785,0
1120,0.04479999999999995,5.000049991798719,-0.0024937920677107622,0.0010534697108644903,0
1121,0.04483999999999999,5.000049991798719,-0.0024937920677107622,0.0010508150691767987,0
1122,0.04488000000000003,5.000378781950543,-0.0028225818947114484,0.0013769564776203026,0
1123,0.04492000000000007,4.999392411494816,-0.0005210531030302584,-0.0009272144866023127,0
1124,0.04496000000000011,5.000378781950543,-0.0031513717215847087,0.0017004682282711547,0
1125,0.04499999999999993,5.000707572102282,0.00013652655288240445,-0.0015900596582125387,0
1126,0.04503999999999997,4.99972120164681,-0.002165002240582567,0.0007088458376632825,0
1127,0.04508000000000001,5.001036362253937,-0.0018362124133269458,0.0003774390499678865,0
1128,0.04512000000000005,4.99972120164681,-0.0015074225859438989,4.6038621975098793e-05,0
1129,0.04516000000000009,5.000049991798719,-0.0031513717215847087,0.0016873835394754023,0
1130,0.04519999999999991,5.000707572102282,-0.001178632758433426,-0.00028795323674958833,0
1131,0.04523999999999995,4.99972120164681,-0.0031513717215847087,0.0016821943409505206,0
1132,0.04527999999999999,4.99972120164681,-0.0005210531030302584,-0.0009507092129188268,0
1133,0.04532000000000003,5.000049991798719,-0.005781690331979852,0.0043073495533237,0
1134,0.04536000000000007,4.999392411494816,-0.0005210531030302584,-0.000955859643295922,0
1135,0.04540000000000011,5.000049991798719,-0.004137741201439435,0.00265826300486691,0
1136,0.045439999999999925,4.999392411494816,0.0004653163810297567,-0.0019473534880809894,0
1137,0.045479999999999965,4.99972120164681,0.0004653163810297567,-0.0019499058364910106,0
1138,0.045520000000000005,5.001365152405508,-0.0015074225859438989,2.028736639930707e-05,0
1139,0.045560000000000045,5.000049991798719,-0.0015074225859438989,1.7748208857415243e-05,0
1140,0.045600000000000085,5.000378781950543,-0.0015074225859438989,1.521568002831519e-05,0
1141,0.0456399999999999,5.000707572102282,-0.0031513717215847087,0.0016566389376805755,0
1142,0.04567999999999994,4.99972120164681,-0.0018362124133269458,0.0003389604243588134,0
1143,0.04571999999999998,5.000378781950543,-0.0018362124133269458,0.00033644791425942156,0
1144,0.04576000000000002,5.000707572102282,-0.002165002240582567,0.0006627319483762061,0
1145,0.04580000000000006,5.000378781950543,-0.0024937920677107622,0.0009890227212777808,0
1146,0.0458400000000001,5.000378781950543,-0.0024937920677107622,0.000986530427870572,0
1147,0.04587999999999992,5.000049991798719,-0.0024937920677107622,0.0009840449171453346,0
1148,0.04591999999999996,5.000049991798719,-0.0018362124133269458,0.0003239865565360005,0
1149,0.04596,5.000049991798719,-0.002165002240582567,0.0006503045038385867,0
1150,0.04600000000000004,4.999392411494816,-0.002165002240582567,0.0006478394718856453,0
1151,0.04604000000000008,5.000049991798719,-0.002165002240582567,0.0006453813096150791,0
1152,0.0460799999999999,4.99972120164681,-0.0018362124133269458,0.0003141402114080511,0
1153,0.04611999999999994,5.000049991798719,-0.0018362124133269458,0.0003116958533669157,0
1154,0.04615999999999998,5.000049991798719,-0.0018362124133269458,0.00030925842978132357,0
1155,0.04620000000000002,4.99972120164681,-0.002165002240582567,0.000635617789406152,0
1156,0.04624000000000006,5.000378781950543,-0.001178632758433426,-0.0003531751829659081,0
1157,0.0462800000000001,5.000378781950543,-0.0024937920677107622,0.000959567634903095,0
1158,0.04631999999999992,5.000378781950543,-0.0018362124133269458,0.0002995785092857286,0
1159,0.04635999999999996,4.99972120164681,-0.0018362124133269458,0.00029717607954046093,0
1160,0.0464,5.000049991798719,-0.002165002240582567,0.0006235705398057386,0
1161,0.04644000000000004,5.000049991798719,-0.0028225818947114484,0.0012787619109188174,0
1162,0.04648000000000008,5.000378781950543,-0.0024937920677107622,0.0009475909060492954,0
1163,0.046519999999999895,5.000049991798719,-0.0024937920677107622,0.0009452168544524945,0
1164,0.046559999999999935,4.99972120164681,-0.002165002240582567,0.0006140601230770795,0
1165,0.046599999999999975,5.000049991798719,-0.0024937920677107622,0.0009404902143374926,0
1166,0.046640000000000015,4.99972120164681,-0.002165002240582567,0.0006093478407029553,0
1167,0.046680000000000055,5.000049991798719,-0.0024937920677107622,0.0009357923316202278,0
1168,0.046720000000000095,5.000049991798719,-0.0024937920677107622,0.0009334542265905176,0
1169,0.04675999999999991,4.99972120164681,-0.0018362124133269458,0.0002735437191956464,0
1170,0.04679999999999995,5.000378781950543,-0.0018362124133269458,0.00027122013899216887,0
1171,0.04683999999999999,4.99972120164681,-0.002165002240582567,0.0005976936795921322,0
1172,0.04688000000000003,4.99972120164681,-0.0024937920677107622,0.00092417453430389,0
1173,0.04692000000000007,5.000378781950543,-0.002165002240582567,0.0005930830696408683,0
1174,0.04696000000000011,5.000049991798719,-0.0018362124133269458,0.00026199896032525014,0
1175,0.04699999999999993,4.99972120164681,-0.002165002240582567,0.0005885018815395873,0
1176,0.04703999999999997,5.000378781950543,-0.0028225818947114484,0.0012438020261402933,0
1177,0.04708000000000001,5.000049991798719,-0.0024937920677107622,0.0009127401065692864,0
1178,0.04712000000000005,5.000049991798719,-0.0028225818947114484,0.0012392652783524397,0
1179,0.04716000000000009,5.000049991798719,-0.0028225818947114484,0.0012370080808326576,0
1180,0.04719999999999991,5.000049991798719,-0.0024937920677107622,0.0009059685343047701,0
1181,0.04723999999999995,4.99972120164681,-0.0024937920677107622,0.0009037263130146852,0
1182,0.04727999999999999,5.000378781950543,-0.002165002240582567,0.0005727017830276045,0
1183,0.04732000000000003,4.99972120164681,-0.0031513717215847087,0.0015568440997455295,0
1184,0.04736000000000007,4.99972120164681,-0.0028225818947114484,0.0012258346672554216,0
1185,0.04740000000000011,5.000049991798719,-0.0028225818947114484,0.0012236226403477119,0
1186,0.04743999999999993,5.000378781950543,-0.00348016154833046,0.001878997865758834,0
1187,0.04747999999999997,4.99972120164681,-0.004466531027802631,0.00286317053566238,0
1188,0.04752000000000001,5.000707572102282,-0.0031513717215847087,0.0015458220584031418,0
1189,0.04756000000000005,5.000378781950543,-0.0031513717215847087,0.0015436405457256205,0
1190,0.04760000000000009,5.000049991798719,-0.0028225818947114484,0.0012126768843234179,0
1191,0.047639999999999905,4.99972120164681,-0.0028225818947114484,0.0012105107476759764,0
1192,0.047679999999999945,4.99972120164681,-0.00348016154833046,0.0018659319822099544,0
1193,0.047719999999999985,5.000049991798719,-0.0028225818947114484,0.0012062016466970608,0
1194,0.047760000000000025,4.99972120164681,-0.0031513717215847087,0.0015328485484440095,0
1195,0.047800000000000065,4.99972120164681,-0.0031513717215847087,0.0015307133996092174,0
1196,0.047840000000000105,4.99972120164681,-0.0024937920677107622,0.0008710063926633206,0
1197,0.04787999999999992,5.000378781950543,-0.0028225818947114484,0.0011976766817734415,0
1198,0.04791999999999996,5.000049991798719,-0.0028225818947114484,0.0011955649784298776,0
1199,0.04796,5.000378781950543,-0.0031513717215847087,0.0015222509558191096,0
1200,0.04800000000000004,4.99972120164681,-0.0031513717215847087,0.00152015497945392,0
1201,0.04804000000000008,5.000049991798719,-0.0024937920677107622,0.000860487241539547,0
1202,0.0480799999999999,4.99972120164681,-0.0031513717215847087,0.001515986722850223,0
1203,0.04811999999999994,5.000049991798719,-0.0028225818947114484,0.0011851246539895672,0
1204,0.04815999999999998,5.000049991798719,-0.0024937920677107622,0.0008542705346222525,0
1205,0.04820000000000002,4.99972120164681,-0.0028225818947114484,0.0011810040378679911,0
1206,0.04824000000000006,5.000049991798719,-0.003808951374948702,0.002165325181898767,0
1207,0.0482800000000001,5.000049991798719,-0.003808951374948702,0.002163284852123278,0
1208,0.04831999999999992,4.999392411494816,-0.0024937920677107622,0.0008460932403689407,0
1209,0.04835999999999996,5.000378781950543,-0.0028225818947114484,0.0011728588068858614,0
1210,0.0484,4.999063621342738,-0.0024937920677107622,0.0008420527821528795,0
1211,0.04844000000000004,5.000049991798719,-0.0028225818947114484,0.0011688344928367188,0
1212,0.04848000000000008,5.000049991798719,-0.0018362124133269458,0.00018046499515979807,0
1213,0.0485199999999999,5.000378781950543,-0.0028225818947114484,0.0011648425788301376,0
1214,0.04855999999999994,5.000049991798719,-0.0018362124133269458,0.0001764893368082635,0
1215,0.04859999999999998,4.99972120164681,-0.0031513717215847087,0.0014896730399485392,0
1216,0.04864000000000002,4.99972120164681,-0.0028225818947114484,0.001158915781865193,0
1217,0.04868000000000006,4.99972120164681,-0.0028225818947114484,0.0011569565428942994,0
1218,0.0487200000000001,5.000378781950543,-0.0031513717215847087,0.001483795341311787,0
1219,0.048759999999999915,5.000049991798719,-0.00348016154833046,0.001810642368336808,0
1220,0.048799999999999955,5.000049991798719,-0.0028225818947114484,0.0011511281618958864,0
1221,0.048839999999999995,5.000049991798719,-0.0031513717215847087,0.0014779917009535351,0
1222,0.048880000000000035,5.000049991798719,-0.0024937920677107622,0.0008184940423213226,0
1223,0.048920000000000075,5.000378781950543,-0.0031513717215847087,0.001474163992488819,0
1224,0.048960000000000115,5.000378781950543,-0.0028225818947114484,0.0011434727808986795,0
1225,0.04899999999999993,5.000707572102282,-0.0031513717215847087,0.001470369559925525,0
1226,0.04903999999999997,4.99972120164681,-0.0024937920677107622,0.0008109052128995244,0
1227,0.04908000000000001,5.000378781950543,-0.0031513717215847087,0.0014666085460825356,0
1228,0.04912000000000005,4.99972120164681,-0.0028225818947114484,0.0011359507886889442,0
1229,0.04916000000000009,5.000049991798719,-0.0031513717215847087,0.0014628810928645512,0
1230,0.04919999999999991,5.000049991798719,-0.003808951374948702,0.0021186096489481,0
1231,0.04923999999999995,4.99972120164681,-0.0028225818947114484,0.0011303975143844638,0
1232,0.04927999999999999,4.999392411494816,-0.00348016154833046,0.0017861429741101856,0
1233,0.04932000000000003,5.000049991798719,-0.0024937920677107622,0.000797947777451375,0
1234,0.04936000000000007,4.99972120164681,-0.0028225818947114484,0.0011249203836301144,0
1235,0.04940000000000011,5.000049991798719,-0.0024937920677107622,0.0007943218483294173,0
1236,0.04943999999999993,4.99972120164681,-0.0024937920677107622,0.0007925216697977516,0
1237,0.04947999999999997,5.000378781950543,-0.0018362124133269458,0.00013315038383853155,0
1238,0.04952000000000001,5.000049991798719,-0.0024937920677107622,0.0007889469707324959,0
1239,0.04956000000000005,4.99972120164681,-0.0024937920677107622,0.0007871724843987323,0
1240,0.04960000000000009,5.000378781950543,-0.0031513717215847087,0.0014429862501066514,0
1241,0.049639999999999906,4.99972120164681,-0.0031513717215847087,0.0014412289770609906,0
1242,0.049679999999999946,4.99972120164681,-0.003808951374948702,0.002097059989393171,0
1243,0.049719999999999986,4.99972120164681,-0.00348016154833046,0.0017665301705911698,0
1244,0.049760000000000026,5.000049991798719,-0.0031513717215847087,0.001436009017284511,0
1245,0.049800000000000066,5.000378781950543,-0.0028225818947114484,0.001105496546188454,0
1246,0.049840000000000106,4.99972120164681,-0.003808951374948702,0.002090152081196617,0
1247,0.049879999999999924,5.000049991798719,-0.003808951374948702,0.0020884468515570405,0
1248,0.049919999999999964,5.000378781950543,-0.0024937920677107622,0.0007715910468049274,0
1249,0.049960000000000004,4.999392411494816,-0.0031513717215847087,0.0014274829517659491,0
1250,0.050000000000000044,5.000049991798719,-0.0015074225859438989,-0.00021814516777085742,0
1251,0.050040000000000084,4.99972120164681,-0.0028225818947114484,0.001095343938473002,0
1252,0.0500799999999999,4.99972120164681,-0.0024937920677107622,0.0007648927066158957,0
1253,0.05011999999999994,5.000378781950543,-0.002165002240582567,0.00043445028853296495,0
1254,0.05015999999999998,5.000049991798719,-0.0028225818947114484,0.0010903861817825422,0
1255,0.05020000000000002,5.000378781950543,-0.0024937920677107622,0.0007599614400909368,0
1256,0.05024000000000006,4.99972120164681,-0.0024937920677107622,0.0007583353876404353,0
1257,0.0502800000000001,5.000378781950543,-0.0031513717215847087,0.001414297867295287,0
1258,0.05031999999999992,5.000378781950543,-0.0024937920677107622,0.0007551099333634758,0
1259,0.05035999999999996,4.99972120164681,-0.0031513717215847087,0.0014110902172093237,0
1260,0.0504,5.000049991798719,-0.0024937920677107622,0.0007519201191441725,0
1261,0.05044000000000004,5.000049991798719,-0.0028225818947114484,0.0010791284435361418,0
1262,0.05048000000000008,4.99972120164681,-0.00348016154833046,0.0017351355518128682,0
1263,0.0505199999999999,5.000049991798719,-0.0018362124133269458,8.962284435567536e-05,0
1264,0.05055999999999994,4.99972120164681,-0.002165002240582567,0.00041685808760649496,0
1265,0.05059999999999998,5.000378781950543,-0.0024937920677107622,0.0007441023346770308,0
1266,0.05064000000000002,5.000049991798719,-0.002165002240582567,0.0004137759468744518,0
1267,0.05068000000000006,5.000378781950543,-0.0024937920677107622,0.0007410382480854251,0
1268,0.0507200000000001,4.99972120164681,-0.0024937920677107622,0.0007395197722368896,0
1269,0.050759999999999916,5.000378781950543,-0.0031513717215847087,0.0013955900155800313,0
1270,0.050799999999999956,5.000049991798719,-0.0028225818947114484,0.0010652998586801476,0
1271,0.050839999999999996,5.000049991798719,-0.0024937920677107622,0.0007350187972807586,0
1272,0.050880000000000036,5.001036362253937,-0.00348016154833046,0.0017199061541905893,0
1273,0.050920000000000076,5.000049991798719,-0.003808951374948702,0.0020472229827857807,0
1274,0.050960000000000116,5.000049991798719,-0.0031513717215847087,0.001388179472020475,0
1275,0.050999999999999934,5.000049991798719,-0.0028225818947114484,0.0010579349432393971,0
1276,0.051039999999999974,5.000049991798719,-0.0031513717215847087,0.0013852792385068119,0
1277,0.051080000000000014,4.99972120164681,-0.002165002240582567,0.0003974734109458797,0
1278,0.051120000000000054,4.99972120164681,-0.00348016154833046,0.00171120557186361,0
1279,0.051160000000000094,4.99972120164681,-0.002165002240582567,0.00039462833163214184,0
1280,0.05119999999999991,4.999392411494816,-0.0018362124133269458,6.442980079375549e-05,0
1281,0.05123999999999995,5.000378781950543,-0.00348016154833046,0.0017069794756057,0
1282,0.05127999999999999,5.000378781950543,-0.0024937920677107622,0.00071921979261207,0
1283,0.05132000000000003,4.99972120164681,-0.0028225818947114484,0.0010466286894188328,0
1284,0.05136000000000007,5.001036362253937,-0.003808951374948702,0.0020316265259403754,0
1285,0.05140000000000011,5.000707572102282,-0.0031513717215847087,0.0013726845295728056,0
1286,0.05143999999999993,5.000049991798719,-0.00348016154833046,0.0017001213281966404,0
1287,0.05147999999999997,5.000049991798719,-0.0031513717215847087,0.0013699878023156662,0
1288,0.05152000000000001,5.000378781950543,-0.0024937920677107622,0.0007110737923336119,0
1289,0.05156000000000005,5.000049991798719,-0.00348016154833046,0.0016961182738480275,0
1290,0.05160000000000009,4.99972120164681,-0.0031513717215847087,0.0013660128189107164,0
1291,0.05163999999999991,5.000049991798719,-0.0028225818947114484,0.0010359167486055814,0
1292,0.05167999999999995,5.000049991798719,-0.004137741201439435,0.002349779210442312,0
1293,0.05171999999999999,4.99972120164681,-0.0024937920677107622,0.0007045426440787995,0
1294,0.05176000000000003,4.99972120164681,-0.0031513717215847087,0.0013608442912248684,0
1295,0.05180000000000007,5.000378781950543,-0.0031513717215847087,0.0013595757239891614,0
1296,0.05184000000000011,5.000049991798719,-0.00348016154833046,0.0016871064365111374,0
1297,0.051879999999999926,5.000378781950543,-0.0031513717215847087,0.00135706696200776,0
1298,0.051919999999999966,5.000049991798719,-0.00348016154833046,0.0016846166208505976,0
1299,0.051960000000000006,4.99972120164681,-0.003808951374948702,0.0020121757727434623,0
1300,0.052000000000000046,5.000378781950543,-0.00348016154833046,0.0016821647778343558,0
1301,0.052040000000000086,5.000378781950543,-0.00348016154833046,0.0016809531291690463,0
1302,0.052079999999999904,4.99972120164681,-0.0031513717215847087,0.001350961186508547,0
1303,0.052119999999999944,5.000049991798719,-0.004466531027802631,0.002664927922621158,0
1304,0.052159999999999984,5.000049991798719,-0.0028225818947114484,0.0010197957782267558,0
1305,0.052200000000000024,5.000049991798719,-0.003808951374948702,0.002004991818889201,0
1306,0.052240000000000064,5.000378781950543,-0.0024937920677107622,0.0006886686566647689,0
1307,0.052280000000000104,5.000049991798719,-0.0028225818947114484,0.0010163042260606567,0
1308,0.05231999999999992,4.999392411494816,-0.0028225818947114484,0.0010151595785643198,0
1309,0.05235999999999996,5.000378781950543,-0.0024937920677107622,0.000685234726835809,0
1310,0.0524,5.001365152405508,-0.0031513717215847087,0.001341688991343683,0
1311,0.05244000000000004,5.000378781950543,-0.003808951374948702,0.0019981529032296894,0
1312,0.05248000000000008,5.000049991798719,-0.00348016154833046,0.00166825699548088,0
1313,0.0525199999999999,4.99972120164681,-0.0031513717215847087,0.0013383707603442214,0
1314,0.05255999999999994,4.99972120164681,-0.0031513717215847087,0.0013372840370180225,0
1315,0.05259999999999998,5.000049991798719,-0.00348016154833046,0.0016649968377600583,0
1316,0.05264000000000002,4.999392411494816,-0.00348016154833046,0.0016639295212692367,0
1317,0.05268000000000006,4.99972120164681,-0.0024937920677107622,0.0006765024457945639,0
1318,0.0527200000000001,4.99972120164681,-0.0028225818947114484,0.0010042444116315317,0
1319,0.05275999999999992,4.99972120164681,-0.00348016154833046,0.0016607859497658633,0
1320,0.05279999999999996,4.999392411494816,-0.0024937920677107622,0.0006733881112605832,0
1321,0.05284,5.000049991798719,-0.0024937920677107622,0.0006723695228263349,0
1322,0.05288000000000004,5.000049991798719,-0.0024937920677107622,0.0006713607156277554,0
1323,0.05292000000000008,5.000378781950543,-0.0024937920677107622,0.0006703617013811851,0
1324,0.052959999999999896,5.000049991798719,-0.0031513717215847087,0.0013269521456088285,0
1325,0.052999999999999936,4.99972120164681,-0.0031513717215847087,0.0013259727521428804,0
1326,0.053039999999999976,5.000378781950543,-0.0024937920677107622,0.0006674235324951733,0
1327,0.053080000000000016,5.000378781950543,-0.004137741201439435,0.0023104129395857655,0
1328,0.053120000000000056,4.99972120164681,-0.0024937920677107622,0.0006655139297297675,0
1329,0.053160000000000096,5.000049991798719,-0.0024937920677107622,0.0006645739154197586,0
1330,0.053199999999999914,5.000049991798719,-0.004137741201439435,0.0023075929078937114,0
1331,0.053239999999999954,5.000378781950543,-0.0031513717215847087,0.0013203031710088632,0
1332,0.053279999999999994,5.000378781950543,-0.004137741201439435,0.00230576228915862,0
1333,0.053320000000000034,4.99972120164681,-0.004137741201439435,0.0023048618338105302,0
1334,0.053360000000000074,5.000707572102282,-0.004137741201439435,0.00230397129578213,0
1335,0.053400000000000114,4.999392411494816,-0.0028225818947114484,0.0009879313792392512,0
1336,0.05343999999999993,4.999392411494816,-0.0028225818947114484,0.0009870607084626133,0
1337,0.05347999999999997,5.000049991798719,-0.002165002240582567,0.00032862033335094793,0
1338,0.05352000000000001,4.998406041038327,-0.003808951374948702,0.0019717187072145217,0
1339,0.05356000000000005,4.999392411494816,-0.0005210531030302584,-0.001317020354109192,0
1340,0.05360000000000009,4.999392411494816,-0.005124110680146385,0.0032852064152466363,0
1341,0.05363999999999991,5.002680313010939,-0.003808951374948702,0.001969226294411874,0
1342,0.05367999999999995,5.001693942556992,-0.003808951374948702,0.0019684154813067157,0
1343,0.05371999999999999,5.000707572102282,-0.006768059808773,0.004926723114896875,0
