,seconds,Trig,EMG_amplitude,EMG_amplitude_filter,peaks
0,0.0,5.000378781950543,0.001122896037706475,-0.0005998313563526397,0
1,4.0000000000040004e-05,5.001036362253937,-0.00019226327513760522,0.0007140265618473217,0
2,8.000000000008001e-05,5.000378781950543,0.0014516858662357995,-0.0009312214250399701,0
3,0.00011999999999989797,5.000707572102282,0.0007941062093044515,-0.00027493804824343086,0
4,0.00015999999999993797,5.000049991798719,0.0004653163810297567,5.2558081533682116e-05,0
5,0.00019999999999997797,5.000378781950543,0.0014516858662357995,-0.0009351025042653857,0
6,0.00024000000000001798,5.000378781950543,0.0004653163810297567,4.997849452858052e-05,0
7,0.000280000000000058,5.000378781950543,0.0007941062093044515,-0.00028009718969189916,0
8,0.000320000000000098,5.000049991798719,0.001122896037706475,-0.0006101702272792443,0
9,0.00035999999999991594,5.000049991798719,0.00013652655288240445,0.0003749187114228535,0
10,0.00039999999999995595,5.000707572102282,0.0007941062093044515,-0.00028393881174633315,0
11,0.00043999999999999595,5.000378781950543,0.0004653163810297567,4.357584547601398e-05,0
12,0.00048000000000003595,5.000378781950543,0.0007941062093044515,-0.0002864864418279135,0
13,0.000520000000000076,5.000378781950543,0.0007941062093044515,-0.0002877561724974661,0
14,0.0005599999999998939,5.000049991798719,0.00013652655288240445,0.0003685564979593987,0
15,0.0005999999999999339,5.000378781950543,0.0014516858662357995,-0.0009478670403021115,0
16,0.0006399999999999739,5.000378781950543,0.00013652655288240445,0.00036603082556081485,0
17,0.0006800000000000139,5.000049991798719,0.00013652655288240445,0.0003647721718563449,0
18,0.0007200000000000539,5.001036362253937,0.001122896037706475,-0.0006228531565102012,0
19,0.0007600000000000939,5.000049991798719,0.001122896037706475,-0.0006241061735071621,0
20,0.0007999999999999119,5.000378781950543,0.0004653163810297567,3.2223309109037906e-05,0
21,0.0008399999999999519,5.000378781950543,0.001122896037706475,-0.0006266036622935406,0
22,0.0008799999999999919,5.001036362253937,0.00013652655288240445,0.0003585213835447066,0
23,0.0009200000000000319,5.000378781950543,0.001122896037706475,-0.0006290896481127197,0
24,0.0009600000000000719,4.99972120164681,0.00013652655288240445,0.0003560411984498119,0
25,0.001000000000000112,5.000378781950543,0.0004653163810297567,2.601565703889313e-05,0
26,0.0010399999999999299,5.000049991798719,0.0004653163810297567,2.478288520613148e-05,0
27,0.0010799999999999699,5.000378781950543,0.0007941062093044515,-0.0003052367570311285,0
28,0.0011200000000000099,5.000378781950543,0.00013652655288240445,0.0003511160597443751,0
29,0.0011600000000000499,5.000378781950543,0.0014516858662357995,-0.0009652671024874013,0
30,0.0012000000000000899,5.000378781950543,0.0014516858662357995,-0.0009664879441392937,0
31,0.0012399999999999078,5.000049991798719,0.0007941062093044515,-0.0003101261051689498,0
32,0.0012799999999999478,5.000378781950543,0.0014516858662357995,-0.0009689205399000668,0
33,0.0013199999999999878,5.000049991798719,0.00013652655288240445,0.00034502705229096206,0
34,0.0013600000000000279,5.000707572102282,0.001122896037706475,-0.000642551080576201,0
35,0.0014000000000000679,5.000049991798719,0.001780475694892425,-0.0013013362961985305,0
36,0.0014400000000001079,5.000049991798719,-0.0005210531030302584,0.0009989900493873726,0
37,0.0014799999999999258,5.000707572102282,0.0007941062093044515,-0.00031736859268629945,0
38,0.0015199999999999658,5.000378781950543,0.00013652655288240445,0.0003390148730980061,0
39,0.0015600000000000058,5.000049991798719,0.0004653163810297567,9.032009922609356e-06,0
40,0.0016000000000000458,5.000378781950543,0.001122896037706475,-0.0006497375096590387,0
41,0.0016400000000000858,5.000378781950543,0.0007941062093044515,-0.00032213435552059464,0
42,0.0016799999999999038,5.000049991798719,0.00013652655288240445,0.00033426183180215285,0
43,0.0017199999999999438,4.99972120164681,0.001122896037706475,-0.0006532879004294404,0
44,0.0017599999999999838,4.99972120164681,0.0004653163810297567,3.1147470634640666e-06,0
45,0.0018000000000000238,5.000378781950543,0.0014516858662357995,-0.000984428492566435,0
46,0.0018400000000000638,5.000049991798719,0.0007941062093044515,-0.00032801931875855637,0
47,0.0018800000000001038,4.99972120164681,0.0014516858662357995,-0.0009867661709684985,0
48,0.0019199999999999218,5.000049991798719,0.0014516858662357995,-0.000987930061853804,0
49,0.0019599999999999618,5.000378781950543,0.0007941062093044515,-0.0003315109748622577,0
50,0.0020000000000000018,5.000049991798719,0.0004653163810297567,-3.878379025975664e-06,0
51,0.0020400000000000418,5.000378781950543,0.0007941062093044515,-0.0003338220856782694,0
52,0.002080000000000082,5.000378781950543,0.0004653163810297567,-6.182765157523255e-06,0
53,0.0021199999999998997,5.000378781950543,0.00013652655288240445,0.00032145994242565245,0
54,0.0021599999999999397,4.99972120164681,0.0021092655236763236,-0.0016524227451733937,0
55,0.0021999999999999797,5.000378781950543,0.0014516858662357995,-0.0009959833842066478,0
56,0.0022400000000000198,5.000049991798719,0.001122896037706475,-0.0006683304152445478,0
57,0.0022800000000000598,4.99972120164681,0.0007941062093044515,-0.0003406739929252236,0
58,0.0023200000000000998,5.000707572102282,0.0007941062093044515,-0.00034180392894278636,0
59,0.0023599999999999177,5.000049991798719,0.0014516858662357995,-0.0010005100352434388,0
60,0.0023999999999999577,5.000378781950543,0.0007941062093044515,-0.00034405332444763747,0
61,0.0024399999999999977,4.999392411494816,0.0007941062093044515,-0.00034517275076167465,0
62,0.0024800000000000377,5.000378781950543,0.0014516858662357995,-0.0010038682975956822,0
63,0.0025200000000000777,5.000049991798719,0.001122896037706475,-0.0006761908059657873,0
64,0.0025599999999998957,5.000049991798719,0.0007941062093044515,-0.0003485097448662561,0
65,0.0025999999999999357,5.000378781950543,0.0014516858662357995,-0.0010071945829077315,0
66,0.0026399999999999757,5.000049991798719,0.0014516858662357995,-0.0010082961612284782,0
67,0.0026800000000000157,4.99972120164681,0.001780475694892425,-0.0013381839488179946,0
68,0.0027200000000000557,5.000049991798719,0.0004653163810297567,-2.411895790056459e-05,0
69,0.0027600000000000957,5.000378781950543,0.0014516858662357995,-0.0010115791134631973,0
70,0.0027999999999999137,5.000049991798719,0.0014516858662357995,-0.0010126661146290894,0
71,0.0028399999999999537,4.99972120164681,0.0014516858662357995,-0.001013749430001305,0
72,0.0028799999999999937,5.000378781950543,0.001122896037706475,-0.0006860392144467464,0
73,0.0029200000000000337,4.99972120164681,0.001122896037706475,-0.0006871151084196254,0
74,0.0029600000000000737,4.99972120164681,0.0021092655236763236,-0.0016745567527554992,0
75,0.0029999999999998916,4.99972120164681,0.001780475694892425,-0.0013468353301254116,0
76,0.0030399999999999316,4.999392411494816,0.001122896037706475,-0.0006903203102754323,0
77,0.0030799999999999716,5.000378781950543,0.0014516858662357995,-0.001020170990717131,0
78,0.0031200000000000117,5.000378781950543,0.001780475694892425,-0.0013500178692567848,0
79,0.0031600000000000517,5.000049991798719,0.0007941062093044515,-0.00036470161491688276,0
80,0.0032000000000000917,4.999392411494816,0.001122896037706475,-0.0006945408393266788,0
81,0.0032399999999999096,4.99972120164681,0.0014516858662357995,-0.001024376212018546,0
82,0.0032799999999999496,5.000378781950543,0.001122896037706475,-0.0006966280592021459,0
83,0.0033199999999999896,5.000378781950543,0.001122896037706475,-0.0006976658498617431,0
84,0.0033600000000000296,5.000049991798719,0.0021092655236763236,-0.0016850692248349688,0
85,0.0034000000000000696,5.000378781950543,0.001780475694892425,-0.001357309366796286,0
86,0.0034400000000001096,5.000049991798719,0.0021092655236763236,-0.0016871252314663828,0
87,0.0034799999999999276,5.000707572102282,0.0014516858662357995,-0.0010305676584534073,0
88,0.0035199999999999676,5.000049991798719,0.0027668451816259126,-0.002346745090214145,0
89,0.0035600000000000076,5.000049991798719,0.0024380553525874815,-0.0020189693928926375,0
90,0.0036000000000000476,5.000049991798719,0.0021092655236763236,-0.0016911896944495502,0
91,0.0036400000000000876,5.000049991798719,0.001780475694892425,-0.0013634059782914865,0
92,0.0036799999999999056,5.000049991798719,0.001122896037706475,-0.000706828399297662,0
93,0.0037199999999999456,5.000378781950543,0.001122896037706475,-0.0007078264264666521,0
94,0.0037599999999999856,5.000049991798719,0.0007941062093044515,-0.00038003055762324516,0
95,0.0038000000000000256,4.99972120164681,0.0007941062093044515,-0.000381020432986573,0
96,0.0038400000000000656,4.99972120164681,0.001122896037706475,-0.0007107960359741826,0
97,0.0038800000000001056,4.99972120164681,0.001122896037706475,-0.0007117776932021737,0
98,0.0039199999999999235,5.000049991798719,0.001122896037706475,-0.0007127552164954534,0
99,0.0039599999999999635,4.99972120164681,0.0014516858662357995,-0.0010425184178091055,0
100,0.0040000000000000036,5.000049991798719,0.0014516858662357995,-0.0010434876235132565,0
101,0.0040400000000000436,5.000049991798719,0.001780475694892425,-0.0013732424742257847,0
102,0.0040800000000000836,5.000378781950543,0.0027668451816259126,-0.0023605727828021486,0
103,0.0041199999999999015,4.99972120164681,0.0024380553525874815,-0.0020327395588322175,0
104,0.0041599999999999415,4.99972120164681,0.0024380553525874815,-0.002033691930568555,0
105,0.0041999999999999815,5.000049991798719,0.0014516858662357995,-0.0010482705660669685,0
106,0.0042400000000000215,5.000378781950543,0.0014516858662357995,-0.0010492144214805815,0
107,0.0042800000000000615,5.000049991798719,0.0014516858662357995,-0.0010501539939114608,0
108,0.0043200000000001015,5.000378781950543,0.001780475694892425,-0.001379879095474108,0
109,0.0043599999999999195,5.000378781950543,0.0014516858662357995,-0.0010520202236607927,0
110,0.0043999999999999595,5.000049991798719,0.001780475694892425,-0.0013817366765645667,0
111,0.0044399999999999995,5.000378781950543,0.0014516858662357995,-0.0010538691230300337,0
112,0.0044800000000000395,5.001036362253937,0.001122896037706475,-0.0007259972039735388,0
113,0.0045200000000000795,5.000049991798719,0.001780475694892425,-0.0013844903884636813,0
114,0.0045599999999998975,4.99972120164681,0.001780475694892425,-0.0013853995170848362,0
115,0.0045999999999999375,5.000378781950543,0.001780475694892425,-0.0013863042305136638,0
116,0.0046399999999999775,5.000378781950543,0.001780475694892425,-0.0013872045122461309,0
117,0.0046800000000000175,5.000049991798719,0.001122896037706475,-0.0007305206885976529,0
118,0.0047200000000000575,4.99972120164681,0.0014516858662357995,-0.0010602018859763558,0
119,0.0047600000000000975,5.000049991798719,0.0014516858662357995,-0.0010610887736502259,0
120,0.0047999999999999154,4.99972120164681,0.0014516858662357995,-0.0010619711636669943,0
121,0.0048399999999999554,4.99972120164681,0.001122896037706475,-0.0007340592110217092,0
122,0.0048799999999999955,5.000378781950543,0.0004653163810297567,-7.735289962677969e-05,0
123,0.0049200000000000355,5.000049991798719,0.0007941062093044515,-0.0004070115261177383,0
124,0.0049600000000000755,5.000049991798719,0.00013652655288240445,0.00024970389561045254,0
125,0.004999999999999893,5.000378781950543,0.00013652655288240445,0.0002488442408893562,0
126,0.005039999999999933,5.000049991798719,0.0014516858662357995,-0.0010671701307687002,0
127,0.005079999999999973,5.000049991798719,0.001780475694892425,-0.0013968104048766971,0
128,0.005120000000000013,5.000707572102282,0.001122896037706475,-0.0007400765638589345,0
129,0.005160000000000053,5.000378781950543,0.001122896037706475,-0.0007409177343211423,0
130,0.0052000000000000934,5.000378781950543,0.00013652655288240445,0.00024461524216224544,0
131,0.005239999999999911,4.99972120164681,0.0007941062093044515,-0.0004137962440708017,0
132,0.005279999999999951,4.999392411494816,0.001122896037706475,-0.0007434132073535241,0
133,0.005319999999999991,5.000378781950543,0.0004653163810297567,-8.665597423426221e-05,0
134,0.005360000000000031,5.000049991798719,0.001122896037706475,-0.0007450533267600733,0
135,0.005400000000000071,5.000049991798719,0.0004653163810297567,-8.828662184693162e-05,0
136,0.005440000000000111,5.000049991798719,0.0007941062093044515,-0.0004178846414306421,0
137,0.005479999999999929,4.99972120164681,0.0007941062093044515,-0.0004186880559243085,0
138,0.005519999999999969,5.000049991798719,0.0007941062093044515,-0.0004194866772502339,0
139,0.005560000000000009,5.000378781950543,0.0004653163810297567,-9.149066078987199e-05,0
140,0.005600000000000049,5.000378781950543,0.001122896037706475,-0.0007498593034341614,0
141,0.005640000000000089,5.000707572102282,0.001122896037706475,-0.0007506434472286315,0
142,0.005679999999999907,5.000378781950543,0.0007941062093044515,-0.0004226329041306096,0
143,0.005719999999999947,4.99972120164681,0.0014516858662357995,-0.0010809869715672406,0
144,0.005759999999999987,5.000049991798719,0.0007941062093044515,-0.0004241768340434725,0
145,0.005800000000000027,5.000378781950543,0.0007941062093044515,-0.00042494144606376993,0
146,0.005840000000000067,4.99972120164681,-0.00019226327513760522,0.0005606683500252937,0
147,0.005880000000000107,5.000049991798719,0.0014516858662357995,-0.0010840355397634758,0
148,0.005919999999999925,5.000707572102282,0.00013652655288240445,0.0002303739813726551,0
149,0.005959999999999965,5.000049991798719,0.001122896037706475,-0.0007567403232200909,0
150,0.006000000000000005,5.000049991798719,0.001122896037706475,-0.0007574801542998303,0
151,0.006040000000000045,4.99972120164681,0.0007941062093044515,-0.0004294251520585419,0
152,0.006080000000000085,5.000378781950543,0.0014516858662357995,-0.0010877346140119781,0
153,0.006119999999999903,4.99972120164681,-0.00019226327513760522,0.0005554897596870517,0
154,0.006159999999999943,5.000707572102282,0.001122896037706475,-0.0007603892672853399,0
155,0.006199999999999983,4.999063621342738,0.0004653163810297567,-0.00010352425500339429,0
156,0.006240000000000023,5.000049991798719,0.0007941062093044515,-0.00043302364176285737,0
157,0.006280000000000063,5.000049991798719,0.0004653163810297567,-0.0001049382698976259,0
158,0.006320000000000103,5.000378781950543,0.0004653163810297567,-0.00010563760807779136,0
159,0.006359999999999921,4.99972120164681,0.0021092655236763236,-0.0017502809545326904,0
160,0.006399999999999961,5.000049991798719,0.001122896037706475,-0.0007646005218684124,0
161,0.006440000000000001,5.000378781950543,0.0007941062093044515,-0.0004364945801500134,0
162,0.006480000000000041,5.000049991798719,0.0004653163810297567,-0.00010838345582971423,0
163,0.006520000000000081,5.000378781950543,0.0007941062093044515,-0.00043784678923434024,0
164,0.006559999999999899,4.99972120164681,0.00013652655288240445,0.0002190645769652793,0
165,0.006599999999999939,5.000378781950543,0.0007941062093044515,-0.0004391781387009924,0
166,0.006639999999999979,5.000378781950543,0.0007941062093044515,-0.00043983595090880923,0
167,0.006680000000000019,5.000049991798719,0.001122896037706475,-0.000769278328436674,0
168,0.006720000000000059,5.000049991798719,0.0007941062093044515,-0.0004411357700457358,0
169,0.006760000000000099,4.99972120164681,0.001122896037706475,-0.0007705675733242406,0
170,0.006799999999999917,5.000049991798719,0.001122896037706475,-0.0007712042370593525,0
171,0.006839999999999957,4.99972120164681,0.0014516858662357995,-0.0011006254021888814,0
172,0.006879999999999997,5.000378781950543,0.001122896037706475,-0.0007724615671446947,0
173,0.006920000000000037,4.999392411494816,0.0014516858662357995,-0.0011018720300774564,0
174,0.006960000000000077,4.99972120164681,0.0004653163810297567,-0.00011611780424019636,0
175,0.006999999999999895,5.000378781950543,0.0007941062093044515,-0.0004455175009098888,0
176,0.007039999999999935,5.000378781950543,0.0004653163810297567,-0.00011733213413125628,0
177,0.007079999999999975,5.000378781950543,0.0004653163810297567,-0.00011793117281735856,0
178,0.007120000000000015,5.000049991798719,0.00013652655288240445,0.00021026505535059851,0
179,0.007160000000000055,5.000049991798719,-0.00019226327513760522,0.0005384667379802429,0
180,0.007200000000000095,4.99972120164681,0.001122896037706475,-0.0007772752497974229,0
181,0.007239999999999913,5.000378781950543,0.0004653163810297567,-0.00012027278174448809,0
182,0.007279999999999953,5.000378781950543,0.0007941062093044515,-0.0004496342964950107,0
183,0.007319999999999993,4.999392411494816,-0.0005210531030302584,0.0008649588473349551,0
184,0.007360000000000033,4.999392411494816,0.001122896037706475,-0.0007795509281274782,0
185,0.007400000000000073,4.99972120164681,-0.0005210531030302584,0.0008638431274552313,0
186,0.007440000000000113,5.000049991798719,0.00013652655288240445,0.00020571395173739034,0
187,0.007479999999999931,4.999063621342738,0.00013652655288240445,0.00020517001304259897,0
188,0.007519999999999971,5.001036362253937,-0.0005210531030302584,0.0008622113271166284,0
189,0.007560000000000011,5.000378781950543,0.001122896037706475,-0.0007822705428727302,0
190,0.007600000000000051,4.99972120164681,0.00013652655288240445,0.00020357184099849637,0
191,0.007640000000000091,5.000707572102282,0.0024380553525874815,-0.0020984784156620876,0
192,0.007679999999999909,4.997748460733576,0.0004653163810297567,-0.00012625524138135818,0
193,0.007719999999999949,4.999063621342738,0.004082004499051814,-0.0037434534813372347,0
194,0.007759999999999989,5.001036362253937,-0.0015074225859438989,0.0018454691727158123,0
195,0.007800000000000029,5.000378781950543,0.0030956350107915753,-0.00275808714834,0
196,0.00784000000000007,5.000049991798719,0.0007941062093044515,-0.0004570513489367172,0
197,0.00788000000000011,5.000049991798719,0.00013652655288240445,0.0002000410432350401,0
198,0.007919999999999927,4.998406041038327,0.00013652655288240445,0.00019955953239806506,0
199,0.007959999999999967,5.002680313010939,0.0004653163810297567,-0.00012970603761062332,0
200,0.008000000000000007,4.999063621342738,0.00013652655288240445,0.0001986138331957673,0
201,0.008040000000000047,4.999392411494816,0.0007941062093044515,-0.00045942998051986996,0
202,0.008080000000000087,4.99972120164681,0.00013652655288240445,0.00019769133416506102,0
203,0.008119999999999905,5.000378781950543,0.00013652655288240445,0.000197238823475482,0
204,0.008159999999999945,5.000049991798719,0.001122896037706475,-0.0007895773255177647,0
205,0.008199999999999985,5.000378781950543,0.00013652655288240445,0.00019635135711204793,0
206,0.008240000000000025,5.000378781950543,-0.0005210531030302584,0.0008534960882413908,0
207,0.008280000000000065,5.000049991798719,0.001122896037706475,-0.0007908820844503579,0
208,0.008320000000000105,5.000378781950543,0.0007941062093044515,-0.0004625153797764849,0
209,0.008359999999999923,5.000378781950543,0.0007941062093044515,-0.00046293257989816285,0
210,0.008399999999999963,4.99972120164681,0.001122896037706475,-0.0007921336694548933,0
211,0.008440000000000003,5.000378781950543,0.001122896037706475,-0.0007925389763013915,0
212,0.008480000000000043,5.000378781950543,0.0007941062093044515,-0.0004641484851158332,0
213,0.008520000000000083,5.000378781950543,0.0027668451816259126,-0.0024372808097214644,0
214,0.008559999999999901,4.99972120164681,0.00013652655288240445,0.00019265046695271114,0
215,0.008599999999999941,5.000378781950543,0.0014516858662357995,-0.0011228901829924975,0
216,0.008639999999999981,5.000378781950543,0.0007941062093044515,-0.0004656858319327963,0
217,0.008680000000000021,5.000049991798719,0.0007941062093044515,-0.00046605509186180104,0
218,0.008720000000000061,5.000049991798719,0.0007941062093044515,-0.00046641829064602175,0
219,0.008760000000000101,5.000049991798719,0.0004653163810297567,-0.00013798558482910623,0
220,0.008799999999999919,5.000378781950543,0.0007941062093044515,-0.0004671264440741193,0
221,0.008839999999999959,4.99972120164681,0.0007941062093044515,-0.0004674713684167506,0
222,0.008879999999999999,5.000049991798719,-0.00019226327513760522,0.0005185593134296432,0
223,0.008920000000000039,5.000049991798719,0.0007941062093044515,-0.000468142836762922,0
224,0.008960000000000079,5.000707572102282,0.00013652655288240445,0.00018911030583070238,0
225,0.008999999999999897,4.99972120164681,0.001122896037706475,-0.0007975795258441741,0
226,0.009039999999999937,4.99972120164681,0.00013652655288240445,0.00018847579414067684,0
227,0.009079999999999977,5.000049991798719,0.0007941062093044515,-0.0004694118300967403,0
228,0.009120000000000017,5.000378781950543,0.0004653163810297567,-0.00014092375762316987,0
229,0.009160000000000057,5.000049991798719,0.0004653163810297567,-0.0001412192864416665,0
230,0.009200000000000097,5.000378781950543,0.00013652655288240445,0.00018728125481602795,0
231,0.009239999999999915,5.000049991798719,0.0004653163810297567,-0.0001417916033682538,0
232,0.009279999999999955,5.000378781950543,0.001122896037706475,-0.0007996480183277618,0
233,0.009319999999999995,5.000707572102282,0.0007941062093044515,-0.00047112866157560725,0
234,0.009360000000000035,5.000707572102282,-0.00019226327513760522,0.0005149766527055002,0
235,0.009400000000000075,5.000049991798719,0.001122896037706475,-0.0008004405139775459,0
236,0.009439999999999893,5.000049991798719,0.00013652655288240445,0.00018567744813950866,0
237,0.009479999999999933,5.000049991798719,0.0004653163810297567,-0.00014335755679618413,0
238,0.009519999999999973,5.000049991798719,0.001122896037706475,-0.0008011760295792458,0
239,0.009560000000000013,5.000378781950543,0.001122896037706475,-0.0008014084702638253,0
240,0.009600000000000053,5.000378781950543,0.001122896037706475,-0.0008016345208105816,0
241,0.009640000000000093,5.000049991798719,0.00013652655288240445,0.00018451531829675354,0
242,0.009679999999999911,5.000049991798719,0.001122896037706475,-0.0008020673927458478,0
243,0.009719999999999951,5.000378781950543,0.001122896037706475,-0.0008022741848221649,0
244,0.009759999999999991,5.000707572102282,0.00013652655288240445,0.00018389495668748985,0
245,0.009800000000000031,5.000049991798719,0.0014516858662357995,-0.0011314582366232042,0
246,0.009840000000000071,4.999392411494816,0.00013652655288240445,0.0001835136747005908,0
247,0.009880000000000111,5.000378781950543,0.0004653163810297567,-0.0001454570630028559,0
248,0.009919999999999929,4.99972120164681,0.0007941062093044515,-0.00047442129383927365,0
249,0.009959999999999969,5.000049991798719,0.0004653163810297567,-0.00014579934663615511,0
250,0.010000000000000009,5.000049991798719,0.001122896037706475,-0.0008035403484237714,0
251,0.010040000000000049,5.000378781950543,0.001122896037706475,-0.0008036951431288593,0
252,0.010080000000000089,5.000049991798719,0.001122896037706475,-0.0008038433730085561,0
253,0.010119999999999907,5.000049991798719,0.001780475694892425,-0.0014615646808549354,0
254,0.010159999999999947,4.99972120164681,0.0014516858662357995,-0.0011329099092714568,0
255,0.010199999999999987,4.99972120164681,0.001122896037706475,-0.0008042485298859895,0
256,0.010240000000000027,5.000378781950543,0.0014516858662357995,-0.0011331601853140408,0
257,0.010280000000000067,4.99972120164681,0.0014516858662357995,-0.0011332753756781162,0
258,0.010320000000000107,5.001036362253937,0.0014516858662357995,-0.00113338391524449,0
259,0.010359999999999925,5.000378781950543,0.0014516858662357995,-0.0011334857897767393,0
260,0.010399999999999965,4.99972120164681,0.0004653163810297567,-0.00014721149985918015,0
261,0.010440000000000005,4.99972120164681,0.0007941062093044515,-0.000476089829995885,0
262,0.010480000000000045,4.99972120164681,0.00013652655288240445,0.00018140803214624203,0
263,0.010520000000000085,5.000049991798719,0.0007941062093044515,-0.00047624669684525846,0
264,0.010559999999999903,5.000378781950543,0.001122896037706475,-0.0008051048620052918,0
265,0.010599999999999943,5.000049991798719,0.001122896037706475,-0.0008051664488784294,0
266,0.010639999999999983,5.000049991798719,0.0014516858662357995,-0.0011340111003502954,0
267,0.010680000000000023,5.000378781950543,0.0014516858662357995,-0.0011340591453443748,0
268,0.010720000000000063,4.99972120164681,0.0004653163810297567,-0.00014773091319409217,0
269,0.010760000000000103,5.000049991798719,0.001780475694892425,-0.0014629246742125066,0
270,0.01079999999999992,5.000049991798719,0.001122896037706475,-0.0008053726443489159,0
271,0.01083999999999996,5.000049991798719,0.0014516858662357995,-0.0011341832664623053,0
272,0.01088,5.000378781950543,0.0014516858662357995,-0.001134197212431796,0
273,0.01092000000000004,5.000049991798719,0.00013652655288240445,0.00018095501641418707,0
274,0.01096000000000008,4.99972120164681,0.001122896037706475,-0.0008054146776366375,0
275,0.010999999999999899,5.000049991798719,0.001122896037706475,-0.0008054079977932412,0
276,0.011039999999999939,5.000378781950543,0.0007941062093044515,-0.0004766045867174112,0
277,0.011079999999999979,4.999392411494816,0.0014516858662357995,-0.0011341637444136693,0
278,0.011120000000000019,5.000378781950543,0.0007941062093044515,-0.0004765566579846191,0
279,0.011160000000000059,5.000049991798719,0.0007941062093044515,-0.00047652228455266827,0
280,0.011200000000000099,5.000378781950543,0.0007941062093044515,-0.0004764809535446834,0
281,0.011239999999999917,5.000378781950543,0.0014516858662357995,-0.0011340123082802301,0
282,0.011279999999999957,5.000049991798719,0.001122896037706475,-0.0008051671927856638,0
283,0.011319999999999997,4.999392411494816,0.0007941062093044515,-0.00047631507909764217,0
284,0.011360000000000037,5.000378781950543,0.001122896037706475,-0.0008050356103720592,0
285,0.011400000000000077,5.000049991798719,0.00013652655288240445,0.0001814101969114596,0
286,0.011439999999999895,5.000378781950543,0.00013652655288240445,0.00018149355816221688,0
287,0.011479999999999935,5.000049991798719,0.0007941062093044515,-0.0004759956847892194,0
288,0.011519999999999975,5.000049991798719,0.00013652655288240445,0.000181681450720761,0
289,0.011560000000000015,5.000378781950543,0.0007941062093044515,-0.00047579364762978445,0
290,0.011600000000000055,5.000049991798719,0.0007941062093044515,-0.0004756819972398517,0
291,0.011640000000000095,5.000378781950543,0.0007941062093044515,-0.0004755632412281557,0
292,0.011679999999999913,4.99972120164681,0.00013652655288240445,0.0001821422900989962,0
293,0.011719999999999953,5.000378781950543,0.0014516858662357995,-0.0011328840162160771,0
294,0.011759999999999993,5.000049991798719,0.0007941062093044515,-0.0004751642069053788,0
295,0.011800000000000033,4.99972120164681,0.0004653163810297567,-0.00014622706773463476,0
296,0.011840000000000073,4.99972120164681,0.001122896037706475,-0.0008036522418552339,0
297,0.011880000000000113,5.000378781950543,0.0007941062093044515,-0.0004747007461261037,0
298,0.01191999999999993,5.000049991798719,0.0014516858662357995,-0.0011321115378810415,0
299,0.01195999999999997,5.000049991798719,0.0007941062093044515,-0.0004743558048784215,0
300,0.01200000000000001,5.000049991798719,0.0004653163810297567,-0.00014538267662494097,0
301,0.01204000000000005,5.000378781950543,0.001122896037706475,-0.0008027717964357696,0
302,0.01208000000000009,5.000049991798719,0.0014516858662357995,-0.0011313638382657249,0
303,0.012119999999999909,5.000049991798719,-0.0005210531030302584,0.000841580180446194,0
304,0.012159999999999949,4.999392411494816,0.001122896037706475,-0.0008021566352186846,0
305,0.012199999999999989,5.000049991798719,0.0007941062093044515,-0.0004731471932729832,0
306,0.012240000000000029,5.000049991798719,0.0004653163810297567,-0.00014413045017077025,0
307,0.012280000000000069,4.99972120164681,0.0014516858662357995,-0.0011302657064874053,0
308,0.012320000000000109,5.000378781950543,0.0004653163810297567,-0.00014365466558614003,0
309,0.012359999999999927,4.99972120164681,0.0014516858662357995,-0.00112977525558149,0
310,0.012399999999999967,5.000707572102282,0.0007941062093044515,-0.0004719393512487537,0
311,0.012440000000000007,5.000049991798719,-0.0005210531030302584,0.0008434835733186903,0
312,0.012480000000000047,5.000049991798719,0.0004653163810297567,-0.00014261492107132186,0
313,0.012520000000000087,5.000049991798719,0.0004653163810297567,-0.00014233654139301236,0
314,0.012559999999999905,4.99972120164681,0.0004653163810297567,-0.00014205075917038873,0
315,0.012599999999999945,5.000049991798719,0.00013652655288240445,0.00018703226624472468,0
316,0.012639999999999985,5.000378781950543,0.0004653163810297567,-0.00014145693712423925,0
317,0.012680000000000025,5.000049991798719,0.0004653163810297567,-0.0001411488724052223,0
318,0.012720000000000065,4.99972120164681,0.0007941062093044515,-0.0004696231836259071,0
319,0.012760000000000105,5.000378781950543,-0.00019226327513760522,0.0005170692825637269,0
320,0.012799999999999923,5.000707572102282,0.0007941062093044515,-0.0004689697431145475,0
321,0.012839999999999963,5.000378781950543,0.0007941062093044515,-0.00046863179504801815,0
322,0.012880000000000003,5.000049991798719,0.00013652655288240445,0.00018929331099360803,0
323,0.012920000000000043,5.000378781950543,-0.0005210531030302584,0.000847225930292811,0
324,0.012960000000000083,4.998734831190575,0.0007941062093044515,-0.00046757289271102915,0
325,0.0129999999999999,4.99972120164681,0.0004653163810297567,-0.00013841503702046273,0
326,0.01303999999999994,5.000049991798719,0.0007941062093044515,-0.0004668292876904522,0
327,0.01307999999999998,5.000049991798719,-0.00019226327513760522,0.0005199233366119788,0
328,0.01312000000000002,5.000049991798719,0.001122896037706475,-0.0007948452620863643,0
329,0.01316000000000006,4.99972120164681,0.00013652655288240445,0.00019192252316119912,0
330,0.0132000000000001,5.000049991798719,-0.0008498429307955274,0.0011786979054953324,0
331,0.013239999999999919,4.99972120164681,0.0007941062093044515,-0.0004648377257983794,0
332,0.013279999999999959,5.000049991798719,0.00013652655288240445,0.00019316306145960736,0
333,0.013319999999999999,4.999392411494816,0.0007941062093044515,-0.00046398783025510817,0
334,0.013360000000000039,4.99972120164681,0.0007941062093044515,-0.0004635514198727135,0
335,0.013400000000000079,5.000049991798719,0.0007941062093044515,-0.000463107352049777,0
336,0.013439999999999896,4.99972120164681,0.001122896037706475,-0.0007914454434611871,0
337,0.013479999999999936,4.99972120164681,0.0014516858662357995,-0.00111977585414358,0
338,0.013519999999999976,5.000049991798719,0.0007941062093044515,-0.0004617290868589824,0
339,0.013560000000000016,4.99972120164681,0.001780475694892425,-0.0014476237579761767,0
340,0.013600000000000056,5.000378781950543,0.001122896037706475,-0.0007895615706296502,0
341,0.013640000000000096,5.000049991798719,0.0007941062093044515,-0.0004602814848440649,0
342,0.013679999999999914,5.000049991798719,0.0004653163810297567,-0.00013099366046886968,0
343,0.013719999999999954,4.999392411494816,0.00013652655288240445,0.00019830191395049288,0
344,0.013759999999999994,4.99972120164681,0.0007941062093044515,-0.0004587642346129927,0
345,0.013800000000000034,5.000049991798719,0.00013652655288240445,0.00019933670262952774,0
346,0.013840000000000074,4.99972120164681,0.00013652655288240445,0.00019986576774744995,0
347,0.013879999999999892,4.999063621342738,0.00013652655288240445,0.00020040262845838236,0
348,0.013919999999999932,5.000378781950543,0.0007941062093044515,-0.00045663236040428194,0
349,0.013959999999999972,5.000378781950543,-0.0008498429307955274,0.0011878692653186983,0
350,0.014000000000000012,5.000049991798719,0.00013652655288240445,0.00020206009650214254,0
351,0.014040000000000052,5.000378781950543,0.0004653163810297567,-0.00012616157641127438,0
352,0.014080000000000092,5.000378781950543,0.001122896037706475,-0.0007831652263880235,0
353,0.01411999999999991,5.001036362253937,0.001780475694892425,-0.0014401610143553562,0
354,0.01415999999999995,5.000049991798719,0.0004653163810297567,-0.00012440995774381567,0
355,0.01419999999999999,4.99972120164681,0.001122896037706475,-0.0007813899871709502,0
356,0.01424000000000003,4.99972120164681,0.001780475694892425,-0.001438362121677453,0
357,0.01428000000000007,4.999063621342738,0.0014516858662357995,-0.0011089568640238142,0
358,0.01432000000000011,5.000049991798719,0.0004653163810297567,-0.00012196403265708091,0
359,0.014359999999999928,5.000378781950543,0.0007941062093044515,-0.00045012258680303933,0
360,0.014399999999999968,5.000378781950543,0.0007941062093044515,-0.0004494833739437791,0
361,0.014440000000000008,4.99972120164681,0.0014516858662357995,-0.0011064158685648977,0
362,0.014480000000000048,5.000707572102282,0.0014516858662357995,-0.0011057607461254352,0
363,0.014520000000000088,4.99972120164681,0.00013652655288240445,0.00021006166043259435,0
364,0.014559999999999906,4.99972120164681,0.001780475694892425,-0.0014332164070141487,0
365,0.014599999999999946,5.000049991798719,0.0014516858662357995,-0.0011037475118847542,0
366,0.014639999999999986,5.000049991798719,0.0014516858662357995,-0.0011030604429943997,0
367,0.014680000000000026,5.000049991798719,0.0007941062093044515,-0.00044478570428992597,0
368,0.014720000000000066,5.000707572102282,0.00013652655288240445,0.0002134970572101549,0
369,0.014760000000000106,5.000049991798719,0.0014516858662357995,-0.0011009511173813566,0
370,0.014799999999999924,5.000049991798719,0.0007941062093044515,-0.00044265227766867915,0
371,0.014839999999999964,5.000378781950543,0.0007941062093044515,-0.0004419250405757885,0
372,0.014880000000000004,5.000378781950543,0.00013652655288240445,0.0002163899174991937,0
373,0.014920000000000044,4.99972120164681,0.0007941062093044515,-0.00044044636250516195,0
374,0.014960000000000084,5.000707572102282,0.0014516858662357995,-0.00109727455809327,0
375,0.014999999999999902,5.000378781950543,0.0007941062093044515,-0.0004389353447763999,0
376,0.015039999999999942,5.000049991798719,0.0004653163810297567,-0.00010937785500136739,0
377,0.015079999999999982,5.000049991798719,0.001122896037706475,-0.0007661817350347459,0
378,0.015120000000000022,5.000049991798719,0.0007941062093044515,-0.00043660800486268535,0
379,0.015160000000000062,5.000378781950543,0.001780475694892425,-0.0014221854536148602,0
380,0.015200000000000102,5.000378781950543,0.001122896037706475,-0.0007638056146330645,0
381,0.01523999999999992,5.000049991798719,0.0007941062093044515,-0.00043420744962577686,0
382,0.01527999999999996,5.000707572102282,0.0007941062093044515,-0.00043339094840678423,0
383,0.01532,4.99972120164681,0.00013652655288240445,0.00022501338360709372,0
384,0.01536000000000004,4.99972120164681,0.001122896037706475,-0.000760523241538538,0
385,0.01540000000000008,4.99972120164681,0.00013652655288240445,0.00022668729671886058,0
386,0.015439999999999898,4.99972120164681,0.00013652655288240445,0.00022753655352973753,0
387,0.015479999999999938,5.000378781950543,0.00013652655288240445,0.00022839402329505266,0
388,0.015519999999999978,5.000049991798719,0.0007941062093044515,-0.0004283199408762603,0
389,0.015560000000000018,5.000049991798719,0.0007941062093044515,-0.00042744601665517816,0
390,0.015600000000000058,5.000378781950543,0.0007941062093044515,-0.0004265638510250094,0
391,0.0156400000000001,5.000378781950543,0.0007941062093044515,-0.00042567343459334753,0
392,0.015679999999999916,5.000049991798719,0.0007941062093044515,-0.0004247747580142585,0
393,0.015719999999999956,5.000049991798719,0.001780475694892425,-0.0014102372975763932,0
394,0.015759999999999996,4.999392411494816,0.0014516858662357995,-0.001080532244194612,0
395,0.015800000000000036,4.99972120164681,0.0027668451816259126,-0.0023947680469545755,0
396,0.015840000000000076,4.99972120164681,-0.00019226327513760522,0.0005652722195027245,0
397,0.015879999999999894,5.001036362253937,0.001780475694892425,-0.0014065266346584187,0
398,0.015919999999999934,4.999063621342738,0.0004653163810297567,-9.041888968761258e-05,0
399,0.015959999999999974,5.000378781950543,-0.0005210531030302584,0.0008969073497364914,0
400,0.016000000000000014,4.999063621342738,0.0004653163810297567,-8.849704573438182e-05,0
401,0.016040000000000054,4.99972120164681,-0.0005210531030302584,0.0008988458690611942,0
402,0.016080000000000094,4.999392411494816,0.0007941062093044515,-0.00041533166151803437,0
403,0.016119999999999912,5.002680313010939,0.0014516858662357995,-0.0010719211768484907,0
404,0.016159999999999952,5.000378781950543,-0.0015074225859438989,0.0018881857855548552,0
405,0.016199999999999992,4.99972120164681,0.0014516858662357995,-0.0010699157790493691,0
406,0.016240000000000032,5.000378781950543,0.0021092655236763236,-0.0017264801628819539,0
407,0.016280000000000072,4.999063621342738,0.003424424840084442,-0.003040615811017576,0
408,0.016320000000000112,5.000378781950543,0.0027668451816259126,-0.002382004081038597,0
409,0.01635999999999993,5.000378781950543,0.0004653163810297567,-7.94347971394666e-05,0
410,0.01639999999999997,5.000049991798719,0.0004653163810297567,-7.838589356836306e-05,0
411,0.01644000000000001,5.000707572102282,0.0021092655236763236,-0.0017212777039392023,0
412,0.01648000000000005,5.000378781950543,0.001780475694892425,-0.0013914221057877037,0
413,0.01652000000000009,5.000049991798719,-0.00019226327513760522,0.0005823910790396703,0
414,0.016559999999999908,5.000049991798719,0.001122896037706475,-0.000731685565288964,0
415,0.016599999999999948,4.99972120164681,0.0007941062093044515,-0.00040180460641469305,0
416,0.016639999999999988,5.000049991798719,0.001122896037706475,-0.0007294948341987498,0
417,0.016680000000000028,4.99972120164681,0.001122896037706475,-0.0007283867552960671,0
418,0.016720000000000068,4.99972120164681,0.001780475694892425,-0.001384849847205676,0
419,0.016760000000000108,5.000049991798719,0.001780475694892425,-0.0013837247875169265,0
420,0.016799999999999926,5.000378781950543,0.001780475694892425,-0.0013825912254273416,0
421,0.016839999999999966,5.000049991798719,0.0007941062093044515,-0.0003950796674109811,0
422,0.016880000000000006,4.99972120164681,0.001780475694892425,-0.0013802985623443897,0
423,0.016920000000000046,5.000049991798719,0.0014516858662357995,-0.0010503496169703788,0
424,0.016960000000000086,5.000707572102282,0.00013652655288240445,0.0002659773469490099,0
425,0.016999999999999904,5.000378781950543,0.0007941062093044515,-0.0003904261173236395,0
426,0.017039999999999944,5.000049991798719,0.0004653163810297567,-6.0451547632478584e-05,0
427,0.017079999999999984,4.99972120164681,-0.0005210531030302584,0.0009271112347434779,0
428,0.017120000000000024,5.000049991798719,0.0007941062093044515,-0.00038684621479479934,0
429,0.017160000000000064,5.000049991798719,0.0004653163810297567,-5.6845951713693885e-05,0
430,0.017200000000000104,5.000049991798719,0.0004653163810297567,-5.5626937419469766e-05,0
431,0.017239999999999922,5.000049991798719,0.001122896037706475,-0.0007119789928881034,0
432,0.017279999999999962,4.99972120164681,0.001122896037706475,-0.000710742797392031,0
433,0.017320000000000002,4.99972120164681,0.0007941062093044515,-0.00038070817188386765,0
434,0.017360000000000042,4.99972120164681,0.001122896037706475,-0.000708244594299782,0
435,0.017400000000000082,5.000378781950543,0.0007941062093044515,-0.0003781927438140872,0
436,0.0174399999999999,4.999392411494816,0.0014516858662357995,-0.0010345017553990456,0
437,0.01747999999999994,5.000707572102282,0.0007941062093044515,-0.000375642822746003,0
438,0.01751999999999998,5.000378781950543,0.0004653163810297567,-4.5565081314417454e-05,0
439,0.01756000000000002,4.99972120164681,0.0007941062093044515,-0.00037305835198996105,0
440,0.01760000000000006,5.000049991798719,0.0004653163810297567,-4.296331471974763e-05,0
441,0.0176400000000001,4.99972120164681,0.0007941062093044515,-0.00037043927570153254,0
442,0.017679999999999918,4.99972120164681,0.001122896037706475,-0.0006979065716654458,0
443,0.017719999999999958,5.000049991798719,0.0007941062093044515,-0.0003677855388856434,0
444,0.017759999999999998,5.000049991798719,0.001780475694892425,-0.0013528151414151683,0
445,0.017800000000000038,5.000049991798719,0.001122896037706475,-0.0006938869158026984,0
446,0.017840000000000078,5.000049991798719,0.0004653163810297567,-3.494999869770455e-05,0
447,0.017879999999999896,4.999392411494816,0.001122896037706475,-0.0006911636963645579,0
448,0.017919999999999936,5.000049991798719,0.0014516858662357995,-0.0010185788607765733,0
449,0.017959999999999976,4.999392411494816,0.0007941062093044515,-0.0003596158281487187,0
450,0.018000000000000016,5.000378781950543,0.0014516858662357995,-0.0010158033913868366,0
451,0.018040000000000056,4.99972120164681,0.0004653163810297567,-2.803308812767308e-05,0
452,0.018080000000000096,4.99972120164681,0.0014516858662357995,-0.0010129930246120153,0
453,0.018119999999999914,5.000049991798719,0.001122896037706475,-0.0006827849104383323,0
454,0.018159999999999954,5.000378781950543,-0.00019226327513760522,0.0006338014311721132,0
455,0.018199999999999994,5.000049991798719,-0.00019226327513760522,0.0006352372092049804,0
456,0.018240000000000034,4.99972120164681,0.00013652655288240445,0.0003078919145738542,0
457,0.018280000000000074,4.99972120164681,0.00013652655288240445,0.00030934520935316505,0
458,0.018320000000000114,4.99972120164681,-0.00019226327513760522,0.0006395970995220977,0
459,0.018359999999999932,5.000049991798719,0.0007941062093044515,-0.000345301549477588,0
460,0.018399999999999972,4.999063621342738,0.0007941062093044515,-0.00034382193487340846,0
461,0.018440000000000012,4.99972120164681,0.001122896037706475,-0.000671123363696677,0
462,0.018480000000000052,5.000049991798719,0.00013652655288240445,0.00031674331143777235,0
463,0.018520000000000092,5.000049991798719,0.0004653163810297567,-1.0540529966364214e-05,0
464,0.01855999999999991,4.99972120164681,0.001122896037706475,-0.0006666053978217789,0
465,0.01859999999999995,4.99972120164681,0.0007941062093044515,-0.00033629197293119346,0
466,0.01863999999999999,4.99972120164681,0.0004653163810297567,-5.96973496770731e-06,0
467,0.01868000000000003,5.000049991798719,0.0007941062093044515,-0.00033321833487673103,0
468,0.01872000000000007,5.000707572102282,0.0007941062093044515,-0.0003316682824139719,0
469,0.01876000000000011,5.000049991798719,0.001780475694892425,-0.0013164788860784485,0
470,0.018799999999999928,5.000049991798719,0.0014516858662357995,-0.000986121340730621,0
471,0.018839999999999968,5.000049991798719,0.001122896037706475,-0.0006557549554922173,0
472,0.018880000000000008,4.99972120164681,0.001780475694892425,-0.0013117492107579606,0
473,0.018920000000000048,5.000378781950543,0.001122896037706475,-0.0006525753013044697,0
474,0.018960000000000088,5.000049991798719,0.001122896037706475,-0.0006509721936105413,0
475,0.018999999999999906,5.000378781950543,0.0007941062093044515,-0.00032057039706642905,0
476,0.019039999999999946,4.99972120164681,0.001122896037706475,-0.0006477393919138235,0
477,0.019079999999999986,5.000378781950543,0.0007941062093044515,-0.00031731985963776265,0
478,0.019120000000000026,4.99972120164681,0.0007941062093044515,-0.000315681280595076,0
479,0.019160000000000066,5.000378781950543,0.001122896037706475,-0.0006428236499942666,0
480,0.019200000000000106,5.000378781950543,0.001122896037706475,-0.000641167306297651,0
481,0.019239999999999924,5.000378781950543,0.00013652655288240445,0.00034686741159247847,0
482,0.019279999999999964,5.000378781950543,0.001122896037706475,-0.0006378279461785195,0
483,0.019320000000000004,5.000049991798719,0.001122896037706475,-0.0006361449205790754,0
484,0.019360000000000044,5.000378781950543,0.001122896037706475,-0.0006344529919322228,0
485,0.019400000000000084,4.99972120164681,0.001780475694892425,-0.0012903318129813123,0
486,0.019439999999999902,4.99972120164681,0.0014516858662357995,-0.0009598322363137742,0
487,0.019479999999999942,4.99972120164681,0.0014516858662357995,-0.0009581135721034261,0
488,0.019519999999999982,5.000378781950543,0.001122896037706475,-0.0006275961588977162,0
489,0.019560000000000022,5.000049991798719,0.0014516858662357995,-0.0009546494780769064,0
490,0.019600000000000062,4.99972120164681,0.0014516858662357995,-0.0009529040399043173,0
491,0.019640000000000102,4.99972120164681,0.0014516858662357995,-0.0009511496688196875,0
492,0.01967999999999992,5.000049991798719,0.0004653163810297567,3.698312441337916e-05,0
493,0.01971999999999996,4.99972120164681,0.001122896037706475,-0.0006188242833229081,0
494,0.01976,5.000049991798719,0.0014516858662357995,-0.0009458329180868373,0
495,0.01980000000000004,5.000049991798719,0.001122896037706475,-0.0006152529471151579,0
496,0.01984000000000008,5.000707572102282,0.0014516858662357995,-0.0009422436807328429,0
497,0.019879999999999898,4.99972120164681,0.0007941062093044515,-0.0002828559726880286,0
498,0.019919999999999938,4.99972120164681,0.001780475694892425,-0.001267408447288058,0
499,0.019959999999999978,5.000049991798719,0.001122896037706475,-0.0006080028156270429,0
500,0.020000000000000018,4.999392411494816,0.0014516858662357995,-0.0009349577026416451,0
501,0.020040000000000058,4.99972120164681,0.0021092655236763236,-0.0015906934480354766,0
502,0.020080000000000098,4.999392411494816,0.0021092655236763236,-0.0015888405620248277,0
503,0.020119999999999916,5.000049991798719,0.0021092655236763236,-0.0015869786986786698,0
504,0.020159999999999956,5.000378781950543,0.0024380553525874815,-0.0019138976835971527,0
505,0.020199999999999996,5.000049991798719,0.001780475694892425,-0.0012544381980125491,0
506,0.020240000000000036,4.99972120164681,0.0027668451816259126,-0.0022389188697700194,0
507,0.020280000000000076,5.000049991798719,0.0014516858662357995,-0.0009218617491886837,0
508,0.020319999999999894,5.000049991798719,0.0014516858662357995,-0.0009199549507144873,0
509,0.020359999999999934,5.000049991798719,0.0014516858662357995,-0.0009180391559506284,0
510,0.020399999999999974,5.000049991798719,0.001122896037706475,-0.0005873245334222743,0
511,0.020440000000000014,4.99972120164681,0.0007941062093044515,-0.0002566009089018271,0
512,0.020480000000000054,5.000049991798719,0.0007941062093044515,-0.00025465810784117615,0
513,0.020520000000000094,5.000378781950543,0.0007941062093044515,-0.00025270629907695976,0
514,0.02055999999999991,5.000378781950543,0.001780475694892425,-0.0012371149654974108,0
515,0.02059999999999995,5.000049991798719,0.001122896037706475,-0.0005775654761025962,0
516,0.02063999999999999,4.99972120164681,0.0007941062093044515,-0.00024679679987412844,0
517,0.02068000000000003,5.000378781950543,0.0014516858662357995,-0.0009023885908471251,0
518,0.02072000000000007,5.000378781950543,0.001780475694892425,-0.0012291815329611754,0
519,0.02076000000000011,4.99972120164681,0.0021092655236763236,-0.00155596545222807,0
520,0.02079999999999993,5.000378781950543,0.0014516858662357995,-0.0008963708599681174,0
521,0.02083999999999997,4.99972120164681,0.0014516858662357995,-0.0008943468975805771,0
522,0.02088000000000001,4.99972120164681,0.001780475694892425,-0.0012211037340782724,0
523,0.02092000000000005,5.000707572102282,0.001780475694892425,-0.0012190617100071824,0
524,0.02096000000000009,4.99972120164681,0.0014516858662357995,-0.000888220823289141,0
525,0.020999999999999908,4.99972120164681,0.001780475694892425,-0.0012149505578785635,0
526,0.021039999999999948,5.000378781950543,0.001122896037706475,-0.0005553017686669702,0
527,0.021079999999999988,4.99972120164681,0.0014516858662357995,-0.0008820134253224566,0
528,0.021120000000000028,5.000049991798719,0.0014516858662357995,-0.0008799262117736718,0
529,0.021160000000000068,5.000378781950543,0.001780475694892425,-0.0012066197834429077,0
530,0.021200000000000108,5.000378781950543,0.001780475694892425,-0.0012045144813164496,0
531,0.021239999999999926,5.000049991798719,0.0027668451816259126,-0.0021887696191472353,0
532,0.021279999999999966,5.000707572102282,0.001122896037706475,-0.0005426970779750646,0
533,0.021320000000000006,5.000378781950543,0.001780475694892425,-0.0011981442880479357,0
534,0.021360000000000046,5.000707572102282,0.001780475694892425,-0.0011960027896277745,0
535,0.021400000000000086,5.000049991798719,0.0004653163810297567,0.00012130707534521344,0
536,0.021439999999999904,5.000049991798719,0.0014516858662357995,-0.0008629028047410282,0
537,0.021479999999999944,5.000378781950543,0.001122896037706475,-0.0005319443158269535,0
538,0.021519999999999984,5.000049991798719,0.0014516858662357995,-0.0008585564275150506,0
539,0.021560000000000024,5.000049991798719,0.0014516858662357995,-0.000856369653089854,0
540,0.021600000000000064,5.000378781950543,0.00013652655288240445,0.0004609854933360722,0
541,0.021640000000000104,5.000049991798719,0.0014516858662357995,-0.0008519689272983098,0
542,0.02167999999999992,5.000707572102282,0.001122896037706475,-0.0005209651454686614,0
543,0.02171999999999996,4.99972120164681,0.001122896037706475,-0.0005187421307165999,0
544,0.02176,4.99972120164681,0.001780475694892425,-0.001174089710892821,0
545,0.02180000000000004,4.999392411494816,0.0007941062093044515,-0.0001854790852961118,0
546,0.02184000000000008,4.99972120164681,0.001122896037706475,-0.0005120187100137234,0
547,0.0218799999999999,5.000049991798719,0.001122896037706475,-0.0005097594420417346,0
548,0.02191999999999994,4.999392411494816,0.001122896037706475,-0.0005074911092351193,0
549,0.02195999999999998,5.000378781950543,0.001780475694892425,-0.0011627933682977194,0
550,0.02200000000000002,5.000378781950543,0.001122896037706475,-0.0005029272472546096,0
551,0.02204000000000006,5.000049991798719,0.001122896037706475,-0.000500631717311677,0
552,0.0220800000000001,5.000049991798719,0.0004653163810297567,0.00015925253568050085,0
553,0.022119999999999918,5.000707572102282,0.0004653163810297567,0.00016156619858994964,0
554,0.022159999999999958,4.99972120164681,0.0007941062093044515,-0.00016490090002522557,0
555,0.022199999999999998,5.000049991798719,0.0007941062093044515,-0.00016256910352501944,0
556,0.022240000000000038,5.000378781950543,0.0007941062093044515,-0.00016022824015906158,0
557,0.022280000000000078,5.001036362253937,0.001122896037706475,-0.0004866681383699458,0
558,0.022319999999999895,5.000378781950543,0.001122896037706475,-0.000484309141459915,0
559,0.022359999999999935,5.000049991798719,0.0007941062093044515,-0.00015315124960106185,0
560,0.022399999999999975,4.99972120164681,0.0004653163810297567,0.00017801570843928327,0
561,0.022440000000000015,4.99972120164681,0.00013652655288240445,0.0005091917323571584,0
562,0.022480000000000055,5.000378781950543,0.0007941062093044515,-0.0001459926626594926,0
563,0.022520000000000095,5.000049991798719,0.001780475694892425,-0.0011299578216433317,0
564,0.022559999999999913,5.000049991798719,0.001122896037706475,-0.00046996477315686,0
565,0.022599999999999953,5.000049991798719,0.0007941062093044515,-0.00013875248932656773,0
566,0.022639999999999993,4.999392411494816,0.0007941062093044515,-0.00013632097040556823,0
567,0.022680000000000033,5.000049991798719,0.00013652655288240445,0.0005236992677287372,0
568,0.022720000000000073,5.001036362253937,0.001780475694892425,-0.00111780023054577,0
569,0.022760000000000113,4.99972120164681,0.0007941062093044515,-0.0001289720400336526,0
570,0.02279999999999993,4.99972120164681,0.0014516858662357995,-0.0007840839317535353,0
571,0.02283999999999997,4.998734831190575,-0.0005210531030302584,0.0011911318620432248,0
572,0.02288000000000001,5.000707572102282,0.001122896037706475,-0.0004503313958784944,0
573,0.02292000000000005,5.001693942556992,0.001122896037706475,-0.0004478364558810243,0
574,0.02296000000000009,5.000378781950543,0.001122896037706475,-0.0004453324598699496,0
575,0.02299999999999991,5.000049991798719,0.0004653163810297567,0.00021476024759551997,0
576,0.02303999999999995,5.000049991798719,0.001122896037706475,-0.00044029730481784894,0
577,0.02307999999999999,5.000378781950543,0.00013652655288240445,0.0005486033363738601,0
578,0.02312000000000003,4.99972120164681,0.00013652655288240445,0.0005511435434081783,0
579,0.02316000000000007,4.99972120164681,0.0007941062093044515,-0.00010388685681786164,0
580,0.02320000000000011,5.000049991798719,0.00013652655288240445,0.0005562511033894359,0
581,0.023239999999999927,5.000049991798719,0.00013652655288240445,0.0005588184531239597,0
582,0.023279999999999967,4.99972120164681,0.00013652655288240445,0.0005613948471001859,0
583,0.023320000000000007,4.99972120164681,0.0004653163810297567,0.00023519045539552156,0
584,0.023360000000000047,5.000049991798719,0.001122896037706475,-0.0004197947242150299,0
585,0.023400000000000087,4.99972120164681,0.001122896037706475,-0.00041719120843617926,0
586,0.023439999999999905,4.99972120164681,0.001780475694892425,-0.0010721583131092709,0
587,0.023479999999999945,4.99972120164681,0.0014516858662357995,-0.0007407468972524093,0
588,0.023519999999999985,4.999392411494816,0.0007941062093044515,-8.053662054809794e-05,0
589,0.023560000000000025,5.000049991798719,0.00013652655288240445,0.0005796826860368951,0
590,0.023600000000000065,5.000049991798719,0.0004653163810297567,0.00025354153619156557,0
591,0.023640000000000105,5.000049991798719,0.0004653163810297567,0.00025619924031352627,0
592,0.023679999999999923,5.000378781950543,0.0004653163810297567,0.00025886596786798915,0
593,0.023719999999999963,5.000049991798719,0.001122896037706475,-0.0003960379402775657,0
594,0.023760000000000003,5.000378781950543,0.00013652655288240445,0.0005930163115301333,0
595,0.023800000000000043,5.000049991798719,0.0007941062093044515,-6.186956204855233e-05,0
596,0.023840000000000083,4.99972120164681,0.00013652655288240445,0.0005984128904152872,0
597,0.0238799999999999,5.000049991798719,-0.00019226327513760522,0.00092991452494559,0
598,0.02391999999999994,5.000378781950543,0.00013652655288240445,0.0006038455111057469,0
599,0.02395999999999998,5.000707572102282,0.001122896037706475,-0.0003797941547356747,0
600,0.02400000000000002,4.999392411494816,0.00013652655288240445,0.0006093141509373067,0
601,0.02404000000000006,5.000049991798719,0.0014516858662357995,-0.0007030973427060228,0
602,0.0240800000000001,5.000049991798719,-0.001178632758433426,0.0019299780974603548,0
603,0.02411999999999992,5.001365152405508,0.0007941062093044515,-3.9995062136359886e-05,0
604,0.02415999999999996,4.99972120164681,0.0004653163810297567,0.00029156956371134235,0
605,0.0242,5.001693942556992,-0.002165002240582567,0.0029246719690472207,0
606,0.02424000000000004,4.999392411494816,0.0014516858662357995,-0.0006892233712475323,0
607,0.02428000000000008,4.998734831190575,-0.0005210531030302584,0.0012863173439224354,0
608,0.024319999999999897,5.002022732708393,0.0004653163810297567,0.0003027585816575645,0
609,0.024359999999999937,4.999392411494816,0.0004653163810297567,0.00030557827578550227,0
610,0.024399999999999977,5.002022732708393,0.001122896037706475,-0.00034917271805835304,0
611,0.024440000000000017,5.000378781950543,0.001122896037706475,-0.00034633509021792403,0
612,0.024480000000000057,4.99972120164681,0.003753214669504526,-0.002973807132934883,0
613,0.024520000000000097,4.999063621342738,0.003424424840084442,-0.002642161757029558,0
614,0.024559999999999915,4.999063621342738,0.00013652655288240445,0.0006486010301557042,0
615,0.024599999999999955,5.000707572102282,0.0021092655236763236,-0.001321264491132874,0
616,0.024639999999999995,4.999392411494816,0.0004653163810297567,0.0003255670464955051,0
617,0.024680000000000035,5.001036362253937,0.0007941062093044515,-3.314454363606285e-07,0
618,0.024720000000000075,5.000378781950543,0.0007941062093044515,2.5688280821506405e-06,0
619,0.024759999999999893,5.000378781950543,0.001122896037706475,-0.0003233117938809415,0
620,0.024799999999999933,5.000378781950543,0.00013652655288240445,0.0006659758259772356,0
621,0.024839999999999973,5.000378781950543,0.00013652655288240445,0.000668902885211241,0
622,0.024880000000000013,4.99972120164681,0.0007941062093044515,1.4259207757734207e-05,0
623,0.024920000000000053,5.000049991798719,0.0007941062093044515,1.7204101925305998e-05,0
624,0.024960000000000093,5.000707572102282,0.00013652655288240445,0.0006777375631082658,0
625,0.02499999999999991,5.000049991798719,0.0004653163810297567,0.0003519104456392401,0
626,0.02503999999999995,4.99972120164681,0.0004653163810297567,0.0003548820574887634,0
627,0.02507999999999999,5.000378781950543,0.001122896037706475,-0.00029971709098378845,0
628,0.02512000000000003,5.000378781950543,0.0007941062093044515,3.2062137090103476e-05,0
629,0.02516000000000007,4.99972120164681,-0.00019226327513760522,0.0010214299077143567,0
630,0.02520000000000011,4.99972120164681,0.001122896037706475,-0.0002907222374650541,0
631,0.02523999999999993,5.000707572102282,0.0007941062093044515,4.108363498572284e-05,0
632,0.02527999999999997,4.99972120164681,0.001122896037706475,-0.00028468127815242336,0
633,0.02532000000000001,4.99972120164681,0.00013652655288240445,0.0007047219879110645,0
634,0.02536000000000005,4.99972120164681,0.0007941062093044515,5.018497339372743e-05,0
635,0.02540000000000009,5.000049991798719,-0.00019226327513760522,0.0010396059550248243,0
636,0.025439999999999907,5.000378781950543,0.0007941062093044515,5.629681760442312e-05,0
637,0.025479999999999947,5.001036362253937,0.00013652655288240445,0.0007169456653582224,0
638,0.025519999999999987,5.000707572102282,0.0007941062093044515,6.244403898466729e-05,0
639,0.025560000000000027,5.000049991798719,0.0004653163810297567,0.0003943207303603482,0
640,0.025600000000000067,5.000049991798719,0.0004653163810297567,0.0003974164207786569,0
641,0.025640000000000107,4.99972120164681,0.0007941062093044515,7.173110443345172e-05,0
642,0.025679999999999925,4.999392411494816,0.0007941062093044515,7.484443199696936e-05,0
643,0.025719999999999965,5.000049991798719,0.00013652655288240445,0.0007355462256683602,0
644,0.025760000000000005,5.000707572102282,0.00013652655288240445,0.0007386771665842392,0
645,0.025800000000000045,5.000049991798719,0.0004653163810297567,0.0004130270769288779,0
646,0.025840000000000085,5.000378781950543,0.00013652655288240445,0.0007449654349827395,0
647,0.025879999999999903,5.000378781950543,0.0004653163810297567,0.0004193329219236148,0
648,0.025919999999999943,4.99972120164681,0.00013652655288240445,0.0007512888440368644,0
649,0.025959999999999983,4.999063621342738,0.0007941062093044515,9.688405408305412e-05,0
650,0.026000000000000023,4.999392411494816,0.0007941062093044515,0.00010006768660697668,0
651,0.026040000000000063,4.99972120164681,0.0004653163810297567,0.0004320499069432723,0
652,0.026080000000000103,4.99972120164681,0.0004653163810297567,0.00043525105195315467,0
653,0.02611999999999992,5.000378781950543,-0.00019226327513760522,0.001096040599417858,0
654,0.02615999999999996,4.999392411494816,0.00013652655288240445,0.00077046940225037,0
655,0.0262,4.99972120164681,0.0014516858662357995,-0.0005414625474990963,0
656,0.02624000000000004,5.000378781950543,0.0007941062093044515,0.00011935319891228735,0
657,0.02628000000000008,5.000049991798719,0.001122896037706475,-0.00020619182108044565,0
658,0.0263199999999999,5.000378781950543,0.001780475694892425,-0.0008605179579462931,0
659,0.02635999999999994,4.99972120164681,0.00013652655288240445,0.0007866934092045759,0
660,0.02639999999999998,4.999063621342738,0.0004653163810297567,0.00046117450385711045,0
661,0.02644000000000002,4.99972120164681,0.001122896037706475,-0.00019312553959407552,0
662,0.02648000000000006,5.000378781950543,0.00013652655288240445,0.0007965322415760704,0
663,0.0265200000000001,5.000049991798719,0.0007941062093044515,0.00014224955724380608,0
664,0.026559999999999917,5.000049991798719,0.0007941062093044515,0.0001455551976286915,0
665,0.026599999999999957,5.000049991798719,0.001122896037706475,-0.0001799203296137397,0
666,0.026639999999999997,5.000378781950543,0.00013652655288240445,0.0008097721095524127,0
667,0.026680000000000037,5.000378781950543,0.001122896037706475,-0.00017326577541114738,0
668,0.026720000000000077,5.000049991798719,0.001122896037706475,-0.00016992553776814552,0
669,0.026759999999999895,4.99972120164681,0.0004653163810297567,0.0004910029865262327,0
670,0.026799999999999935,5.000049991798719,0.0004653163810297567,0.0004943604762387957,0
671,0.026839999999999975,4.99972120164681,0.0014516858662357995,-0.0004886429051114823,0
672,0.026880000000000015,4.99972120164681,0.0004653163810297567,0.0005011012900698556,0
673,0.026920000000000055,4.99972120164681,0.0004653163810297567,0.0005044845980690213,0
674,0.026960000000000095,4.999392411494816,0.001780475694892425,-0.0008072828179382875,0
675,0.026999999999999913,4.999392411494816,0.0004653163810297567,0.0005112769753962161,0
676,0.027039999999999953,5.000049991798719,0.00013652655288240445,0.0008434758563201097,0
677,0.027079999999999993,5.000707572102282,0.0007941062093044515,0.00018931381759545906,0
678,0.027120000000000033,4.999392411494816,-0.00019226327513760522,0.0011791094761998187,0
679,0.027160000000000073,5.000378781950543,0.0004653163810297567,0.0005249645421316069,0
680,0.027200000000000113,5.000049991798719,0.00013652655288240445,0.0008571976317147593,0
681,0.02723999999999993,4.99972120164681,0.0004653163810297567,0.0005318595956675124,0
682,0.02727999999999997,4.99972120164681,0.0014516858662357995,-0.0004510495755186358,0
683,0.02732000000000001,5.000049991798719,0.0007941062093044515,0.00020999890853569175,0
684,0.02736000000000005,5.000378781950543,0.0007941062093044515,0.00021347623987285106,0
685,0.02740000000000009,5.000049991798719,0.00013652655288240445,0.0008745417228851111,0
686,0.02743999999999991,5.000707572102282,0.001122896037706475,-0.00010833344912905047,0
687,0.02747999999999995,4.99972120164681,0.00013652655288240445,0.0008815388256190145,0
688,0.02751999999999999,5.000049991798719,0.0007941062093044515,0.00022747042705717932,0
689,0.02756000000000003,5.000049991798719,0.00013652655288240445,0.0008885698000255066,0
690,0.02760000000000007,5.000378781950543,0.00013652655288240445,0.0008920979659354207,0
691,0.02764000000000011,4.99972120164681,0.00013652655288240445,0.0008956345718142328,0
692,0.027679999999999927,5.000049991798719,0.0007941062093044515,0.00024159995177285048,0
693,0.027719999999999967,5.000378781950543,0.001122896037706475,-8.363641928602376e-05,0
694,0.027760000000000007,4.99972120164681,0.0007941062093044515,0.00024871527780993537,0
695,0.027800000000000047,4.99972120164681,0.001122896037706475,-7.650428023140397e-05,0
696,0.027840000000000087,4.99972120164681,0.001122896037706475,-7.292561796036078e-05,0
697,0.027879999999999905,4.999392411494816,0.0004653163810297567,0.0005882410830690126,0
698,0.027919999999999945,5.000049991798719,0.0004653163810297567,0.0005918364996021687,0
699,0.027959999999999985,5.000049991798719,0.00013652655288240445,0.0009242301064896934,0
700,0.028000000000000025,5.000049991798719,0.0007941062093044515,0.0002702625809689742,0
701,0.028040000000000065,5.000049991798719,0.0014516858662357995,-0.00038369660301813726,0
702,0.028080000000000105,5.000378781950543,0.0004653163810297567,0.000606301686984416,0
703,0.028119999999999923,5.000378781950543,0.0007941062093044515,0.0002811489850954821,0
704,0.028159999999999963,5.000378781950543,0.0007941062093044515,0.000284794422735071,0
705,0.028200000000000003,5.000049991798719,-0.0005210531030302584,0.0016036074735553787,0
706,0.028240000000000043,5.000049991798719,0.0007941062093044515,0.00029211019007205753,0
707,0.028280000000000083,4.99972120164681,-0.00019226327513760522,0.0012821499831786665,0
708,0.0283199999999999,5.000049991798719,0.00013652655288240445,0.0009570387330113462,0
709,0.02835999999999994,5.000049991798719,0.00013652655288240445,0.0009607255693547371,0
710,0.02839999999999998,5.000049991798719,-0.00019226327513760522,0.001293210481438999,0
711,0.02844000000000002,5.000378781950543,0.0014516858662357995,-0.0003470353389915359,0
712,0.02848000000000006,5.000378781950543,0.0004653163810297567,0.000643045693121344,0
713,0.0285200000000001,5.000378781950543,0.0004653163810297567,0.000646765455005103,0
714,0.02855999999999992,5.000049991798719,0.0007941062093044515,0.0003217035925316448,0
715,0.02859999999999996,5.000378781950543,0.0004653163810297567,0.0006542295793932155,0
716,0.02864,4.99972120164681,0.00013652655288240445,0.0009867637477088565,0
717,0.02868000000000004,4.99972120164681,0.00013652655288240445,0.0009905162581819473,0
718,0.02872000000000008,5.000378781950543,-0.00019226327513760522,0.0013230667556308594,0
719,0.028759999999999897,5.000049991798719,0.00013652655288240445,0.0009980457445742026,0
720,0.028799999999999937,5.000049991798719,0.00013652655288240445,0.0010018226975782767,0
721,0.028839999999999977,5.000049991798719,-0.00019226327513760522,0.0013343976030769954,0
722,0.028880000000000017,4.99972120164681,0.0007941062093044515,0.0003518213089498476,0
723,0.028920000000000057,4.99972120164681,-0.00019226327513760522,0.001341992084832234,0
724,0.028960000000000097,5.001036362253937,0.00013652655288240445,0.0010170116375948699,0
725,0.028999999999999915,5.000378781950543,0.0004653163810297567,0.0006920392677170491,0
726,0.029039999999999955,4.99972120164681,0.0014516858662357995,-0.0002905046936603164,0
727,0.029079999999999995,4.99972120164681,0.0007941062093044515,0.000370908540658815,0
728,0.029120000000000035,4.99972120164681,0.0014516858662357995,-0.000282829497397966,0
729,0.029160000000000075,5.000707572102282,0.0007941062093044515,0.00037859980775013384,0
730,0.029200000000000115,5.000378781950543,0.001122896037706475,5.366764469019058e-05,0
731,0.029239999999999933,5.000378781950543,0.0004653163810297567,0.0007151129715452115,0
732,0.029279999999999973,4.99972120164681,-0.00019226327513760522,0.0013765662903657615,0
733,0.029320000000000013,5.000378781950543,0.0004653163810297567,0.0007228682768929192,0
734,0.029360000000000053,4.99972120164681,0.00013652655288240445,0.0010555477152703638,0
735,0.029400000000000093,4.99972120164681,0.001122896037706475,7.307579563401627e-05,0
736,0.02943999999999991,4.99972120164681,0.0014516858662357995,-0.00025180852540006955,0
737,0.02947999999999995,5.000049991798719,0.0004653163810297567,0.0007384743968864604,0
738,0.02951999999999999,4.99972120164681,0.0007941062093044515,0.0004136059224830991,0
739,0.02956000000000003,4.99972120164681,0.0007941062093044515,0.0004175351802787554,0
740,0.02960000000000007,5.000049991798719,0.0004653163810297567,0.0007502621573348069,0
741,0.02964000000000011,5.000049991798719,-0.00019226327513760522,0.0014117868402585246,0
742,0.02967999999999993,5.000049991798719,0.0004653163810297567,0.0007581600757397577,0
743,0.02971999999999997,4.99972120164681,0.0004653163810297567,0.0007621208191257923,0
744,0.02976000000000001,5.000049991798719,0.00013652655288240445,0.0010948792291698062,0
745,0.02980000000000005,5.000049991798719,0.0004653163810297567,0.0007700658081309392,0
746,0.02984000000000009,5.000378781950543,0.0004653163810297567,0.0007740500270804751,0
747,0.029879999999999907,5.000049991798719,0.0004653163810297567,0.0007780420444283455,0
748,0.029919999999999947,5.000378781950543,-0.00019226327513760522,0.0014396215028272762,0
749,0.029959999999999987,5.000049991798719,0.0007941062093044515,0.0004572595919139594,0
750,0.030000000000000027,5.000049991798719,0.00013652655288240445,0.001118854579503518,0
751,0.030040000000000067,4.99972120164681,0.0007941062093044515,0.0004652979981575183,0
752,0.030080000000000107,5.000049991798719,0.0014516858662357995,-0.00018825085359129665,0
753,0.030119999999999925,5.000378781950543,0.001122896037706475,0.00014457749635321125,0
754,0.030159999999999965,5.000378781950543,0.0024380553525874815,-0.0011665355948255508,0
755,0.030200000000000005,5.000378781950543,0.0024380553525874815,-0.0011624816828535642,0
756,0.030240000000000045,5.000378781950543,0.0004653163810297567,0.0008143188748568739,0
757,0.030280000000000085,5.000049991798719,0.0004653163810297567,0.0008183881210296344,0
758,0.030319999999999903,5.000049991798719,0.0004653163810297567,0.0008224650129901239,0
759,0.030359999999999943,5.000049991798719,0.0004653163810297567,0.0008265495364344215,0
760,0.030399999999999983,5.000378781950543,0.001122896037706475,0.00017306202031031753,0
761,0.030440000000000023,5.000378781950543,0.00013652655288240445,0.0011635312483482903,0
762,0.030480000000000063,5.000049991798719,0.0007941062093044515,0.0005100589232829075,0
763,0.030520000000000103,5.000049991798719,0.001122896037706475,0.00018538399979031652,0
764,0.03055999999999992,5.000049991798719,0.001122896037706475,0.00018950646359109443,0
765,0.03059999999999996,4.99972120164681,0.0014516858662357995,-0.00013515335697892347,0
766,0.03064,5.000049991798719,0.001122896037706475,0.00019777400886406064,0
767,0.03068000000000004,5.000378781950543,0.0004653163810297567,0.0008594987173332963,0
768,0.03072000000000008,5.000049991798719,0.0014516858662357995,-0.0001227182165481484,0
769,0.0307599999999999,5.000378781950543,0.0007941062093044515,0.0005390214762218541,0
770,0.03079999999999994,5.000378781950543,0.001780475694892425,-0.0004431805041026336,0
771,0.03083999999999998,5.000378781950543,0.0021092655236763236,-0.0007677953733586079,0
772,0.03088000000000002,5.000049991798719,0.0007941062093044515,0.0005515463395741171,0
773,0.03092000000000006,5.000049991798719,0.0007941062093044515,0.0005557361618653098,0
774,0.0309600000000001,5.000049991798719,0.0014516858662357995,-9.76462644181361e-05,0
775,0.030999999999999917,4.99972120164681,0.0007941062093044515,0.0005641380160731963,0
776,0.031039999999999957,4.999392411494816,0.0007941062093044515,0.0005683500170296878,0
777,0.031079999999999997,4.99972120164681,0.001122896037706475,0.0002437795513941818,0
778,0.031120000000000037,5.000378781950543,0.0007941062093044515,0.0005767960887154073,0
779,0.031160000000000077,5.000049991798719,0.0024380553525874815,-0.0010629190152238895,0
780,0.031199999999999894,5.000049991798719,0.001780475694892425,-0.00040109800355949223,0
781,0.031239999999999934,5.000378781950543,0.0014516858662357995,-6.8059522177563e-05,0
782,0.031279999999999974,5.000378781950543,0.001122896037706475,0.0002649862418927068,0
783,0.031320000000000014,4.99972120164681,0.0004653163810297567,0.0009268291009150596,0
784,0.031360000000000054,5.000049991798719,0.0014516858662357995,-5.5269931222189463e-05,0
785,0.031400000000000095,5.000378781950543,0.001122896037706475,0.0002777975849470254,0
786,0.03143999999999991,4.99972120164681,0.0004653163810297567,0.0009396621476121923,0
787,0.03147999999999995,5.000049991798719,0.001122896037706475,0.00028637459897951583,0
788,0.03151999999999999,4.99972120164681,0.001122896037706475,0.0002906738927158093,0
789,0.03156000000000003,4.99972120164681,0.0014516858662357995,-3.380947281863124e-05,0
790,0.03160000000000007,4.99972120164681,0.001122896037706475,0.00029929397146023816,0
791,0.03164000000000011,5.000049991798719,0.0004653163810297567,0.0009611943800670196,0
792,0.03167999999999993,5.000378781950543,0.001780475694892425,-0.0003496370623293679,0
793,0.03171999999999997,5.000378781950543,0.0021092655236763236,-0.0006740919168251782,0
794,0.03176000000000001,5.000378781950543,0.0007941062093044515,0.0006454094578721348,0
795,0.03180000000000005,5.000707572102282,0.0014516858662357995,-7.82106955085919e-06,0
796,0.03184000000000009,4.999392411494816,0.0021092655236763236,-0.0006610445452244888,0
797,0.03187999999999991,4.99972120164681,0.0007941062093044515,0.0006584779861785767,0
798,0.03191999999999995,5.000049991798719,0.001780475694892425,-0.0003235212641779523,0
799,0.03195999999999999,5.000378781950543,0.0014516858662357995,9.645800776564165e-06,0
800,0.03200000000000003,5.000049991798719,0.0007941062093044515,0.0006716096778687601,0
801,0.03204000000000007,5.000378781950543,0.001122896037706475,0.0003472110362174241,0
802,0.03208000000000011,5.000378781950543,0.001122896037706475,0.0003516091722152677,0
803,0.032119999999999926,4.999392411494816,0.001122896037706475,0.00035601424004808355,0
804,0.032159999999999966,5.000049991798719,0.001780475694892425,-0.0002971534349516992,0
805,0.032200000000000006,5.000049991798719,0.0014516858662357995,3.6055272693445955e-05,0
806,0.032240000000000046,4.99972120164681,0.0014516858662357995,4.048103086401293e-05,0
807,0.032280000000000086,4.99972120164681,0.0014516858662357995,4.491365052707475e-05,0
808,0.032319999999999904,5.000378781950543,0.001780475694892425,-0.00027943671473272525,0
809,0.032359999999999944,4.99972120164681,0.001780475694892425,-0.0002749904254299825,0
810,0.032399999999999984,5.000378781950543,0.0004653163810297567,0.0010446219857444545,0
811,0.032440000000000024,5.000049991798719,0.003424424840084442,-0.0019100265859553016,0
812,0.032480000000000064,5.001365152405508,0.00013652655288240445,0.0013823383606100365,0
813,0.032520000000000104,5.000049991798719,0.0014516858662357995,7.165246052469635e-05,0
814,0.03255999999999992,5.000707572102282,0.0021092655236763236,-0.0005814470479154245,0
815,0.03259999999999996,5.000378781950543,0.0014516858662357995,8.061947601674163e-05,0
816,0.03264,4.9970908804284875,0.001122896037706475,0.0004139028702192074,0
817,0.03268000000000004,5.001693942556992,0.001122896037706475,0.00041840311669554746,0
818,0.03272000000000008,4.9967620902758165,0.001122896037706475,0.00042291002552829907,0
819,0.0327599999999999,5.002022732708393,0.0007941062093044515,0.0007562134066042853,0
820,0.03279999999999994,4.998406041038327,0.0014516858662357995,0.00010315392760457186,0
821,0.03283999999999998,5.001036362253937,0.0024380553525874815,-0.0008786887742096086,0
822,0.03288000000000002,5.000707572102282,0.001780475694892425,-0.00021657574409117723,0
823,0.03292000000000006,5.001365152405508,0.004082004499051814,-0.0025135646067294213,0
824,0.0329600000000001,4.9967620902758165,0.0027668451816259126,-0.0011938587975407508,0
825,0.03299999999999992,5.000378781950543,0.0021092655236763236,-0.0005317261165108619,0
826,0.03303999999999996,5.001036362253937,0.001122896037706475,0.0004592029048648434,0
827,0.03308,5.000049991798719,0.001780475694892425,-0.0001938107236494612,0
828,0.03312000000000004,5.000049991798719,0.0007941062093044515,0.0007971312647484584,0
829,0.03316000000000008,4.99972120164681,0.0014516858662357995,0.0001441305655702417,0
830,0.033199999999999896,5.000049991798719,0.001122896037706475,0.00047750578753320936,0
831,0.033239999999999936,5.000049991798719,0.0004653163810297567,0.0011396772539939404,0
832,0.033279999999999976,5.000049991798719,0.0014516858662357995,0.00015790597552475105,0
833,0.033320000000000016,5.000049991798719,0.001780475694892425,-0.0001662792689070149,0
834,0.033360000000000056,4.99972120164681,0.0007941062093044515,0.000824701158861772,0
835,0.033400000000000096,5.000378781950543,0.001780475694892425,-0.0001570510461886117,0
836,0.033439999999999914,5.000378781950543,0.001780475694892425,-0.00015242744696047212,0
837,0.033479999999999954,5.000049991798719,0.001122896037706475,0.0005097821084109895,0
838,0.033519999999999994,4.99972120164681,0.0021092655236763236,-0.0004719512002160193,0
839,0.033560000000000034,4.99972120164681,0.0014516858662357995,0.00019027089385784465,0
840,0.033600000000000074,5.000378781950543,0.0014516858662357995,0.00019491956984816838,0
841,0.033640000000000114,5.000049991798719,0.0014516858662357995,0.0001995744651953532,0
842,0.03367999999999993,5.000049991798719,0.0014516858662357995,0.00020423555983276222,0
843,0.03371999999999997,5.000707572102282,0.001122896037706475,0.000537692662156659,0
844,0.03376000000000001,5.000049991798719,0.0007941062093044515,0.0008711559233110253,0
845,0.03380000000000005,5.000378781950543,0.0004653163810297567,0.0012046253230301998,0
846,0.03384000000000009,5.000049991798719,0.001122896037706475,0.0005517313561583194,0
847,0.03387999999999991,4.99972120164681,0.001122896037706475,0.0005564231439256826,0
848,0.03391999999999995,5.000049991798719,0.0014516858662357995,0.0002323311806624575,0
849,0.03395999999999999,5.000049991798719,0.001122896037706475,0.0005658249314269652,0
850,0.03400000000000003,5.000378781950543,0.0007941062093044515,0.0008993247184378367,0
851,0.03404000000000007,5.000378781950543,0.001780475694892425,-8.232879282871479e-05,0
852,0.03408000000000011,5.000049991798719,0.0014516858662357995,0.00025118300513523505,0
853,0.03411999999999993,5.000049991798719,0.001122896037706475,0.0005847007771656413,0
854,0.03415999999999997,5.000378781950543,0.001780475694892425,-6.814498318299424e-05,0
855,0.03420000000000001,5.000049991798719,0.0007941062093044515,0.0009229643316557198,0
856,0.03424000000000005,5.000049991798719,0.0014516858662357995,0.0002701304154005587,0
857,0.03428000000000009,5.000378781950543,0.0007941062093044515,0.000932461703380477,0
858,0.034319999999999906,5.000378781950543,0.0007941062093044515,0.0009372192036833944,0
859,0.034359999999999946,5.000049991798719,0.001780475694892425,-4.438693353022523e-05,0
860,0.034399999999999986,4.99972120164681,0.001122896037706475,0.0006179618988538313,0
861,0.034440000000000026,5.000049991798719,0.0014516858662357995,0.0002939470510340194,0
862,0.034480000000000066,5.000378781950543,0.0014516858662357995,0.00029872781587802577,0
863,0.034520000000000106,4.99972120164681,0.0014516858662357995,0.0003035143434151571,0
864,0.034559999999999924,5.000049991798719,0.00013652655288240445,0.0016234659254930873,0
865,0.034599999999999964,5.000049991798719,0.0014516858662357995,0.0003131046004816669,0
866,0.034640000000000004,4.99972120164681,0.0014516858662357995,0.00031790828680697367,0
867,0.034680000000000044,5.000049991798719,0.0007941062093044515,0.0009802973063488252,0
868,0.034720000000000084,5.000378781950543,0.0014516858662357995,0.0003275326665511229,0
869,0.0347599999999999,5.000049991798719,0.0007941062093044515,0.0009899329733133897,0
870,0.03479999999999994,5.000049991798719,0.00013652655288240445,0.001652338890374059,0
871,0.03483999999999998,5.000049991798719,0.0007941062093044515,0.000999591083445176,0
872,0.03488000000000002,5.000378781950543,0.0004653163810297567,0.001333218328050933,0
873,0.03492000000000006,5.000049991798719,0.0007941062093044515,0.0010092714608651897,0
874,0.0349600000000001,5.000049991798719,0.0007941062093044515,0.0010141199445687686,0
875,0.03499999999999992,4.999392411494816,0.0004653163810297567,0.001347763756955272,0
876,0.03503999999999996,5.000378781950543,0.001122896037706475,0.000695043562529172,0
877,0.03508,4.999392411494816,0.0014516858662357995,0.00037111865205694737,0
878,0.03512000000000004,4.99972120164681,0.001122896037706475,0.0007047788320547348,0
879,0.03516000000000008,5.000049991798719,0.0014516858662357995,0.00038086476594744503,0
880,0.0351999999999999,5.000049991798719,0.0004653163810297567,0.0013721154020087437,0
881,0.03523999999999994,4.99972120164681,0.001780475694892425,6.184260485176459e-05,0
882,0.03527999999999998,4.99972120164681,0.0014516858662357995,0.00039552429341939394,0
883,0.03532000000000002,5.000049991798719,0.001122896037706475,0.0007292113023577175,0
884,0.03536000000000006,5.000049991798719,0.0014516858662357995,0.0004053239519659812,0
885,0.0354000000000001,5.000049991798719,0.0007941062093044515,0.0010678113619321348,0
886,0.035439999999999916,5.000049991798719,0.001122896037706475,0.0007439345385689209,0
887,0.035479999999999956,5.000049991798719,0.0007941062093044515,0.0010776426010588218,0
888,0.035519999999999996,4.999392411494816,0.0014516858662357995,0.0004249863842478856,0
889,0.035560000000000036,4.99972120164681,0.0007941062093044515,0.001087494664254168,0
890,0.035600000000000076,5.000049991798719,0.001780475694892425,0.00010605896155629012,0
891,0.035639999999999894,4.99972120164681,0.001122896037706475,0.0007685775382469029,0
892,0.035679999999999934,4.99972120164681,0.001780475694892425,0.00011594191391849399,0
893,0.035719999999999974,5.000049991798719,0.001780475694892425,0.00012089103680624472,0
894,0.035760000000000014,5.000049991798719,0.001122896037706475,0.000783424883526641,0
895,0.035800000000000054,5.000049991798719,0.0014516858662357995,0.00045959428773422796,0
896,0.035840000000000094,5.000049991798719,0.00013652655288240445,0.0017797178535221764,0
897,0.03587999999999991,5.000378781950543,0.0007941062093044515,0.0011271074456670452,0
898,0.03591999999999995,5.000049991798719,0.0004653163810297567,0.0014608714950154061,0
899,0.03595999999999999,4.99972120164681,0.001122896037706475,0.0008082710082332954,0
900,0.03600000000000003,5.000378781950543,0.001122896037706475,0.0008132551032029643,0
901,0.03604000000000007,4.99972120164681,0.0007941062093044515,0.0011470339278439017,0
902,0.03608000000000011,4.99972120164681,0.0007941062093044515,0.0011520278014864388,0
903,0.03611999999999993,4.99972120164681,0.001780475694892425,0.00017065704301933002,0
904,0.03615999999999997,4.99972120164681,0.001780475694892425,0.00017566059963368538,0
905,0.03620000000000001,5.000378781950543,0.0007941062093044515,0.0011670384472852648,0
906,0.03624000000000005,4.99972120164681,0.001780475694892425,0.000185682105106641,0
907,0.03628000000000009,5.000049991798719,0.0007941062093044515,0.001177069491287059,0
908,0.03631999999999991,5.000378781950543,0.001122896037706475,0.0008533022964389342,0
909,0.03635999999999995,4.999392411494816,0.001780475694892425,0.0002007499814878303,0
910,0.03639999999999999,5.000049991798719,0.0007941062093044515,0.0011921514936523655,0
911,0.03644000000000003,5.000378781950543,0.0004653163810297567,0.0015259780084475255,0
912,0.03648000000000007,4.99972120164681,0.0007941062093044515,0.0012022295021809396,0
913,0.03652000000000011,4.99972120164681,0.0007941062093044515,0.001207275435162124,0
914,0.036559999999999926,5.000707572102282,0.001780475694892425,0.00022595646895567868,0
915,0.036599999999999966,4.99972120164681,0.0014516858662357995,0.0005598013787634184,0
916,0.036640000000000006,5.000378781950543,0.001122896037706475,0.0008936508255248096,0
917,0.036680000000000046,5.000378781950543,0.0024380553525874815,-0.0004164443587895497,0
918,0.036720000000000086,4.99972120164681,0.0007941062093044515,0.0012325734025907397,0
919,0.036759999999999904,4.99972120164681,0.0024380553525874815,-0.0004063026599258287,0
920,0.036799999999999944,5.000378781950543,0.001122896037706475,0.0009139341734721201,0
921,0.036839999999999984,4.99972120164681,0.001780475694892425,0.00026143644757771803,0
922,0.036880000000000024,5.000049991798719,0.001780475694892425,0.00026652276661097776,0
923,0.036920000000000064,4.99972120164681,0.001122896037706475,0.0009291931054821384,0
924,0.036960000000000104,4.99972120164681,0.0014516858662357995,0.000605498296143494,0
925,0.03699999999999992,5.000049991798719,0.0014516858662357995,0.0006105976276365851,0
926,0.03703999999999996,5.000049991798719,-0.00019226327513760522,0.0022596503875460076,0
927,0.03708,5.000049991798719,0.0004653163810297567,0.0016071786116418315,0
928,0.03712000000000004,5.000049991798719,0.001122896037706475,0.0009547110715835749,0
929,0.03716000000000008,4.99972120164681,-0.00019226327513760522,0.0022749867119735276,0
930,0.0371999999999999,5.000049991798719,0.0004653163810297567,0.0016225275687957665,0
931,0.03723999999999994,5.000378781950543,0.0007941062093044515,0.0012988624134150446,0
932,0.03727999999999998,5.000049991798719,0.001122896037706475,0.000975201392216496,0
933,0.03732000000000002,5.000378781950543,0.0007941062093044515,0.0013091241364812623,0
934,0.03736000000000006,4.99972120164681,-0.00019226327513760522,0.0023006306197398876,0
935,0.0374000000000001,4.999392411494816,0.001122896037706475,0.0009906123629057075,0
936,0.03743999999999992,5.000049991798719,0.00013652655288240445,0.0019821269351176112,0
937,0.03747999999999996,5.000049991798719,-0.00019226327513760522,0.002316065856033248,0
938,0.03752,5.000049991798719,0.0007941062093044515,0.0013348494440698865,0
939,0.03756000000000004,5.000049991798719,0.0007941062093044515,0.001340006470152492,0
940,0.03760000000000008,5.000049991798719,-0.00019226327513760522,0.002331536908247639,0
941,0.037639999999999896,4.99972120164681,0.00013652655288240445,0.0020079119353636704,0
942,0.037679999999999936,5.000378781950543,-0.0008498429307955274,0.0029994501495191083,0
943,0.037719999999999976,5.000049991798719,0.0007941062093044515,0.0013606735890428286,0
944,0.037760000000000016,4.999392411494816,0.0007941062093044515,0.001365849991563816,0
945,0.037800000000000056,4.99972120164681,-0.0005210531030302584,0.0026861895030144355,0
946,0.037840000000000096,5.000378781950543,0.00013652655288240445,0.0020337938164569384,0
947,0.037879999999999914,5.000049991798719,0.0004653163810297567,0.001710191701495198,0
948,0.037919999999999954,4.99972120164681,0.0004653163810297567,0.001715383132049472,0
949,0.037959999999999994,5.000378781950543,0.00013652655288240445,0.0020493680816051647,0
950,0.038000000000000034,4.99972120164681,0.00013652655288240445,0.0020545668673003273,0
951,0.038040000000000074,5.000378781950543,0.00013652655288240445,0.0020597692906625838,0
952,0.038080000000000114,5.000378781950543,-0.0005210531030302584,0.002722554980932548,0
953,0.03811999999999993,5.000049991798719,-0.00019226327513760522,0.0023989747716680393,0
954,0.03815999999999997,5.000049991798719,0.00013652655288240445,0.002075398119770821,0
955,0.03820000000000001,5.000049991798719,-0.0008498429307955274,0.0030669843102381755,0
956,0.03824000000000005,5.000378781950543,-0.0008498429307955274,0.003072204520814566,0
957,0.03828000000000009,5.000049991798719,-0.00019226327513760522,0.002419848552588857,0
958,0.03831999999999991,4.999392411494816,0.00013652655288240445,0.0020962858618744293,0
959,0.03835999999999995,4.99972120164681,0.0007941062093044515,0.001443936765597744,0
960,0.03839999999999999,5.000049991798719,0.0007941062093044515,0.0014491707214983297,0
961,0.03844000000000003,5.000049991798719,-0.00019226327513760522,0.002440777530460846,0
962,0.03848000000000007,5.000378781950543,0.00013652655288240445,0.0021172283683952007,0
963,0.03852000000000011,4.99972120164681,-0.0005210531030302584,0.0027800520044597076,0
964,0.03855999999999993,5.000049991798719,-0.0008498429307955274,0.0031140890992876025,0
965,0.03859999999999997,5.000378781950543,-0.0008498429307955274,0.0031193396259242075,0
966,0.03864000000000001,4.99972120164681,-0.0005210531030302584,0.0027958035569827866,0
967,0.03868000000000005,5.000378781950543,-0.00019226327513760522,0.00247227069266473,0
968,0.03872000000000009,5.000378781950543,-0.00019226327513760522,0.002477530833503999,0
969,0.038759999999999906,5.000049991798719,-0.0005210531030302584,0.002811583951965111,0
970,0.038799999999999946,4.99972120164681,-0.0005210531030302584,0.002816850364678049,0
971,0.038839999999999986,4.99972120164681,-0.0005210531030302584,0.002822119871901706,0
972,0.038880000000000026,5.000049991798719,-0.0015074225859438989,0.003813761928867092,0
973,0.038920000000000066,5.000049991798719,-0.0008498429307955274,0.0031614578868672384,0
974,0.038960000000000106,5.000049991798719,-0.0015074225859438989,0.0038243161664810667,0
975,0.038999999999999924,5.000049991798719,-0.001178632758433426,0.0035008079469248245,0
976,0.039039999999999964,4.99972120164681,-0.0005210531030302584,0.0028485128550883375,0
977,0.039080000000000004,4.99972120164681,-0.0015074225859438989,0.0038401698292568156,0
978,0.039120000000000044,5.000378781950543,-0.0005210531030302584,0.0028590907373140942,0
979,0.039160000000000084,5.000049991798719,-0.0005210531030302584,0.0028643839999814126,0
980,0.0391999999999999,5.000049991798719,-0.001178632758433426,0.0035272597616812034,0
981,0.03923999999999994,5.000049991798719,-0.001178632758433426,0.00353255868349281,0
982,0.03927999999999998,5.000378781950543,-0.0008498429307955274,0.003209070565020136,0
983,0.03932000000000002,5.000049991798719,-0.0015074225859438989,0.0038719546884791274,0
984,0.03936000000000006,5.000049991798719,-0.0008498429307955274,0.0032196822325318824,0
985,0.0394000000000001,5.000378781950543,-0.001178632758433426,0.003553781961960044,0
986,0.03943999999999992,5.000049991798719,-0.001178632758433426,0.003559094537991782,0
987,0.03947999999999996,4.999063621342738,-0.0015074225859438989,0.003893199587381699,0
988,0.03952,4.999392411494816,-0.001178632758433426,0.003569727599158691,0
989,0.03956000000000004,5.000378781950543,-0.001178632758433426,0.0035750480273687643,0
990,0.03960000000000008,4.99972120164681,-0.001178632758433426,0.003580371015970496,0
991,0.0396399999999999,5.000049991798719,-0.0018362124133269458,0.004243276191281106,0
992,0.03967999999999994,5.000707572102282,-0.0008498429307955274,0.003262234732360673,0
993,0.03971999999999998,4.99972120164681,-0.0018362124133269458,0.00425393471303053,0
994,0.03976000000000002,4.99972120164681,-0.001178632758433426,0.003601688002091679,0
995,0.03980000000000006,4.999392411494816,-0.0018362124133269458,0.004264603018000282,0
996,0.0398400000000001,5.000049991798719,-0.0015074225859438989,0.003941150939892526,0
997,0.039879999999999916,4.99972120164681,-0.001178632758433426,0.0036177012210731373,0
998,0.039919999999999956,5.000049991798719,-0.0015074225859438989,0.00395183348780207,0
999,0.039959999999999996,5.000049991798719,-0.002165002240582567,0.004614757883254345,0
1000,0.040000000000000036,5.000049991798719,-0.0015074225859438989,0.003962525242048593,0
1001,0.040040000000000076,5.000049991798719,-0.0008498429307955274,0.003310294843933183,0
1002,0.040080000000000116,5.000378781950543,-0.0005210531030302584,0.002986856487738437,0
1003,0.040119999999999933,4.99972120164681,-0.0008498429307955274,0.0033209999725062767,0
1004,0.040159999999999973,4.99972120164681,-0.0008498429307955274,0.0033263557857925495,0
1005,0.040200000000000014,5.000049991798719,-0.001178632758433426,0.0036605035538094387,0
1006,0.040240000000000054,5.000378781950543,-0.0008498429307955274,0.0033370737644098205,0
1007,0.040280000000000094,4.999392411494816,-0.0015074225859438989,0.004000015526380085,0
1008,0.04031999999999991,4.99972120164681,-0.001178632758433426,0.0036765898449573984,0
1009,0.04035999999999995,5.000378781950543,-0.001178632758433426,0.003681956000951505,0
1010,0.04039999999999999,4.99972120164681,-0.0015074225859438989,0.004016113964961182,0
1011,0.04044000000000003,4.99972120164681,-0.001178632758433426,0.0036926942250123363,0
1012,0.04048000000000007,4.99972120164681,-0.0018362124133269458,0.004355645889045973,0
1013,0.04052000000000011,5.000049991798719,-0.0008498429307955274,0.003374650307708177,0
1014,0.04055999999999993,4.99972120164681,-0.0015074225859438989,0.004037605726537833,0
1015,0.04059999999999997,5.000049991798719,-0.0018362124133269458,0.0043717731504833365,0
1016,0.04064000000000001,4.99972120164681,-0.0008498429307955274,0.0033907830677486015,0
1017,0.04068000000000005,5.000049991798719,-0.0015074225859438989,0.0040537438962406835,0
1018,0.04072000000000009,4.999392411494816,-0.0015074225859438989,0.004059126813404166,0
1019,0.04075999999999991,5.000049991798719,-0.0028225818947114484,0.0053796707533878595,0
1020,0.04079999999999995,4.999063621342738,-0.0005210531030302584,0.003083528277168724,0
1021,0.04083999999999999,5.000378781950543,-0.0015074225859438989,0.004075285729944133,0
1022,0.04088000000000003,4.99972120164681,-0.0028225818947114484,0.0053958346330877476,0
1023,0.04092000000000007,5.000378781950543,-0.0015074225859438989,0.004086066513286129,0
1024,0.04096000000000011,5.000707572102282,-0.00348016154833046,0.0060641982292652455,0
1025,0.040999999999999925,4.998734831190575,-0.001178632758433426,0.0037680637275855694,0
1026,0.041039999999999965,5.000049991798719,-0.0015074225859438989,0.004102249347897989,0
1027,0.041080000000000005,4.99972120164681,0.0004653163810297567,0.002134907648232497,0
1028,0.041120000000000045,4.997748460733576,-0.0018362124133269458,0.0044418351542872495,0
1029,0.041160000000000085,5.000049991798719,0.0007941062093044515,0.0018169166575897318,0
1030,0.0411999999999999,5.000378781950543,-0.00019226327513760522,0.0028086876520099007,0
1031,0.04123999999999994,5.000378781950543,-0.0015074225859438989,0.004129249826609641,0
1032,0.04127999999999998,4.99972120164681,0.00013652655288240445,0.002490704875126119,0
1033,0.04132000000000002,5.000049991798719,-0.0008498429307955274,0.0034824798393932764,0
1034,0.04136000000000006,4.99972120164681,-0.0018362124133269458,0.0044742560654208036,0
1035,0.0414000000000001,5.001036362253937,-0.001178632758433426,0.0038220843865542447,0
1036,0.04143999999999992,4.99972120164681,-0.0018362124133269458,0.004485073219593284,0
1037,0.04147999999999996,5.000378781950543,-0.002165002240582567,0.0048192733966646376,0
1038,0.04152,5.000049991798719,-0.0015074225859438989,0.004167105233027726,0
1039,0.04156000000000004,5.000049991798719,-0.002165002240582567,0.004830097489334348,0
1040,0.04160000000000008,5.000378781950543,-0.0015074225859438989,0.004177931516474588,0
1041,0.0416399999999999,5.000049991798719,-0.0015074225859438989,0.004183346247773998,0
1042,0.04167999999999994,5.000378781950543,-0.002165002240582567,0.004846341652607143,0
1043,0.04171999999999998,5.000378781950543,-0.0015074225859438989,0.00419417873639783,0
1044,0.04176000000000002,5.000049991798719,-0.001178632758433426,0.003870806604856856,0
1045,0.04180000000000006,5.000378781950543,-0.0024937920677107622,0.005191384536914785,0
1046,0.0418400000000001,5.000049991798719,-0.00019226327513760522,0.00289527526317016,0
1047,0.04187999999999992,5.000049991798719,-0.0008498429307955274,0.0035582753029075095,0
1048,0.04191999999999996,5.000378781950543,-0.0008498429307955274,0.0035636965214071266,0
1049,0.04196,5.000049991798719,-0.0018362124133269458,0.004555488025994196,0
1050,0.04200000000000004,5.000049991798719,-0.002165002240582567,0.0048897006479641245,0
1051,0.04204000000000008,5.000049991798719,-0.0015074225859438989,0.004237544529768037,0
1052,0.042079999999999895,5.000378781950543,-0.0008498429307955274,0.003585389121827362,0
1053,0.042119999999999935,5.000378781950543,-0.002165002240582567,0.004905973358591505,0
1054,0.042159999999999975,4.99972120164681,-0.001178632758433426,0.003925029452160835,0
1055,0.042200000000000015,5.000049991798719,-0.0015074225859438989,0.0042592454730709895,0
1056,0.042240000000000055,5.000049991798719,-0.0015074225859438989,0.004264672253059846,0
1057,0.042280000000000095,5.000049991798719,-0.001178632758433426,0.003941309761003711,0
1058,0.04231999999999991,5.000378781950543,-0.0018362124133269458,0.004604317275661926,0
1059,0.04235999999999995,4.99972120164681,-0.0015074225859438989,0.004280955801167605,0
1060,0.04239999999999999,5.000049991798719,-0.001178632758433426,0.003957594788452583,0
1061,0.04244000000000003,5.000378781950543,-0.002165002240582567,0.004949393516055845,0
1062,0.04248000000000007,4.99972120164681,-0.0015074225859438989,0.0042972435062513985,0
1063,0.04252000000000011,4.99972120164681,-0.0018362124133269458,0.004631463346539904,0
1064,0.04255999999999993,4.999392411494816,-0.0018362124133269458,0.00463689369617768,0
1065,0.04259999999999997,5.000378781950543,-0.002165002240582567,0.00497111417843465,0
1066,0.04264000000000001,5.000378781950543,-0.0024937920677107622,0.005305334934529428,0
1067,0.04268000000000005,4.99972120164681,-0.0018362124133269458,0.004653186451649715,0
1068,0.04272000000000009,5.000378781950543,-0.002165002240582567,0.004987407661490102,0
1069,0.04275999999999991,4.99972120164681,-0.0024937920677107622,0.005321629050797954,0
1070,0.04279999999999995,4.999392411494816,-0.0018362124133269458,0.0046694811066742194,0
1071,0.04283999999999999,5.000049991798719,-0.0018362124133269458,0.0046749129334718,0
1072,0.04288000000000003,5.000049991798719,-0.001178632758433426,0.004022765190342207,0
1073,0.04292000000000007,5.000049991798719,-0.001178632758433426,0.004028197155473331,0
1074,0.04296000000000011,5.000378781950543,-0.0015074225859438989,0.004362418969855212,0
1075,0.04299999999999993,5.000049991798719,-0.0008498429307955274,0.0037102712916640846,0
1076,0.04303999999999997,5.000707572102282,-0.001178632758433426,0.004044493054663313,0
1077,0.04308000000000001,5.000049991798719,-0.0015074225859438989,0.004378714744230383,0
1078,0.04312000000000005,4.99972120164681,-0.0015074225859438989,0.004384146501246592,0
1079,0.04316000000000009,5.000049991798719,-0.0018362124133269458,0.004718367948843194,0
1080,0.043199999999999905,4.99972120164681,-0.002165002240582567,0.005052589227721078,0
1081,0.043239999999999945,5.000049991798719,-0.0015074225859438989,0.0044004408242986,0
1082,0.043279999999999985,4.99972120164681,-0.0015074225859438989,0.004405871843268028,0
1083,0.043320000000000025,5.000378781950543,-0.001178632758433426,0.004082512770613852,0
1084,0.043360000000000065,4.99972120164681,-0.0008498429307955274,0.003759153401827309,0
1085,0.043400000000000105,5.000378781950543,-0.0015074225859438989,0.004422163187905077,0
1086,0.04343999999999992,4.99972120164681,-0.001178632758433426,0.00409880313146005,0
1087,0.04347999999999996,5.000378781950543,-0.0008498429307955274,0.003775442683056914,0
1088,0.04352,5.000049991798719,-0.001178632758433426,0.004109661466107655,0
1089,0.04356000000000004,5.000049991798719,-0.0008498429307955274,0.003786300138045174,0
1090,0.04360000000000008,4.99972120164681,-0.0008498429307955274,0.0037917281497436253,0
1091,0.0436399999999999,5.000378781950543,-0.0018362124133269458,0.004783525124033188,0
1092,0.04367999999999994,5.000378781950543,-0.0015074225859438989,0.004460162236381076,0
1093,0.04371999999999998,5.000049991798719,-0.0018362124133269458,0.004794378419357628,0
1094,0.04376000000000002,4.99972120164681,-0.001178632758433426,0.004142224503786878,0
1095,0.04380000000000006,5.000049991798719,-0.0008498429307955274,0.003818859767044853,0
1096,0.0438400000000001,4.999063621342738,-0.0018362124133269458,0.004810653659866472,0
1097,0.04387999999999992,5.000049991798719,-0.0008498429307955274,0.003829707874818431,0
1098,0.04391999999999996,5.000378781950543,-0.0005210531030302584,0.0035063409995064326,0
1099,0.04396,4.99972120164681,-0.0015074225859438989,0.0044981326575980665,0
1100,0.04400000000000004,5.000049991798719,-0.001178632758433426,0.004174764195723497,0
1101,0.04404000000000008,4.99972120164681,-0.0015074225859438989,0.004508974547039566,0
1102,0.0440799999999999,5.000378781950543,-0.0005210531030302584,0.0035280247137918375,0
1103,0.04411999999999994,5.000378781950543,-0.001178632758433426,0.004191023112390932,0
1104,0.04415999999999998,5.000378781950543,-0.0008498429307955274,0.003867651089128005,0
1105,0.04420000000000002,5.000049991798719,-0.0005210531030302584,0.003544278094545352,0
1106,0.04424000000000006,5.000049991798719,-0.0005210531030302584,0.0035496939241440365,0
1107,0.0442800000000001,4.99972120164681,-0.0005210531030302584,0.0035551087177472817,0
1108,0.044319999999999915,5.000049991798719,-0.00019226327513760522,0.003231732615031239,0
1109,0.044359999999999955,4.99972120164681,-0.0008498429307955274,0.0038947248949884952,0
1110,0.044399999999999995,5.000378781950543,-0.0005210531030302584,0.0035713465581754438,0
1111,0.044440000000000035,5.000049991798719,-0.0008498429307955274,0.0039055467110570155,0
1112,0.044480000000000075,5.000049991798719,-0.0005210531030302584,0.003582166010064632,0
1113,0.044520000000000115,5.000707572102282,0.0004653163810297567,0.0026012044219081236,0
1114,0.04455999999999993,4.999392411494816,-0.0005210531030302584,0.00359298053845809,0
1115,0.04459999999999997,4.99972120164681,-0.001178632758433426,0.004255965530375513,0
1116,0.04464000000000001,4.99972120164681,-0.00019226327513760522,0.003275000055038389,0
1117,0.04468000000000005,5.000378781950543,-0.0005210531030302584,0.0036091925297368397,0
1118,0.04472000000000009,4.99972120164681,-0.00019226327513760522,0.0032858039548825236,0
1119,0.04475999999999991,4.99972120164681,-0.0015074225859438989,0.004606363092328154,0
1120,0.04479999999999995,5.000049991798719,-0.0005210531030302584,0.003625391977006589,0
1121,0.04483999999999999,5.000707572102282,0.00013652655288240445,0.002973209196973994,0
1122,0.04488000000000003,4.99972120164681,-0.0005210531030302584,0.0036361842043737356,0
1123,0.04492000000000007,5.000378781950543,-0.001178632758433426,0.004299157654174019,0
1124,0.04496000000000011,5.000049991798719,0.00013652655288240445,0.0029893905474526247,0
1125,0.04499999999999993,5.000707572102282,-0.00019226327513760522,0.0033235709575361767,0
1126,0.04503999999999997,5.000049991798719,-0.0005210531030302584,0.003657749712218024,0
1127,0.04508000000000001,4.99972120164681,-0.00019226327513760522,0.0033343471230817628,0
1128,0.04512000000000005,5.000378781950543,0.00013652655288240445,0.00301094281301214,0
1129,0.04516000000000009,5.000049991798719,-0.0005210531030302584,0.003673906233281491,0
1130,0.04519999999999991,5.000378781950543,-0.0008498429307955274,0.004008078039007819,0
1131,0.04523999999999995,4.999392411494816,-0.0008498429307955274,0.004013458197757329,0
1132,0.04527999999999999,5.000378781950543,-0.0005210531030302584,0.0036900466767003726,0
1133,0.04532000000000003,4.99972120164681,-0.00019226327513760522,0.003366633270631711,0
1134,0.04536000000000007,5.000378781950543,-0.00019226327513760522,0.0033720077747150367,0
1135,0.04540000000000011,5.000378781950543,0.00013652655288240445,0.003048590500168368,0
1136,0.045439999999999925,5.000378781950543,-0.0005210531030302584,0.003711540726062352,0
1137,0.045479999999999965,5.000378781950543,-0.00019226327513760522,0.003388119451764508,0
1138,0.045520000000000005,4.99972120164681,0.00013652655288240445,0.0030646961280460924,0
1139,0.045560000000000045,5.000378781950543,-0.00019226327513760522,0.0033988503781558206,0
1140,0.045600000000000085,5.000049991798719,0.00013652655288240445,0.003075422857083292,0
1141,0.0456399999999999,4.99972120164681,-0.00019226327513760522,0.003409572843966733,0
1142,0.04567999999999994,5.000049991798719,-0.00019226327513760522,0.0034149308217931097,0
1143,0.04571999999999998,5.000707572102282,-0.00019226327513760522,0.003420286585618496,0
1144,0.04576000000000002,5.000707572102282,0.00013652655288240445,0.0030968502744482722,0
1145,0.04580000000000006,4.99972120164681,-0.00019226327513760522,0.0034309913393574397,0
1146,0.0458400000000001,5.000049991798719,0.00013652655288240445,0.0031075504352707736,0
1147,0.04587999999999992,5.000049991798719,-0.0005210531030302584,0.0037704766691558714,0
1148,0.04591999999999996,5.000049991798719,0.00013652655288240445,0.0031182412122399946,0
1149,0.04596,5.000049991798719,-0.00019226327513760522,0.003452372827257005,0
1150,0.04600000000000004,4.99972120164681,-0.0005210531030302584,0.003786501997113611,0
1151,0.04604000000000008,5.000378781950543,0.0004653163810297567,0.00280546937694237,0
1152,0.0460799999999999,5.000049991798719,0.00013652655288240445,0.0031395935578525736,0
1153,0.04611999999999994,5.000049991798719,0.00013652655288240445,0.0031449253664304145,0
1154,0.04615999999999998,4.999063621342738,0.00013652655288240445,0.0031502545977560707,0
1155,0.04620000000000002,4.999392411494816,-0.00019226327513760522,0.0034843710467745486,0
1156,0.04624000000000006,5.000378781950543,0.0004653163810297567,0.002832115368195896,0
1157,0.0462800000000001,5.000378781950543,0.0014516858662357995,0.0018510671840789215,0
1158,0.04631999999999992,5.000378781950543,-0.00019226327513760522,0.003500334916944826,0
1159,0.04635999999999996,5.000049991798719,0.00013652655288240445,0.0031768609377170434,0
1160,0.0464,5.000049991798719,0.00013652655288240445,0.0031821740106987616,0
1161,0.04644000000000004,5.000378781950543,-0.00019226327513760522,0.0035162741027734705,0
1162,0.04648000000000008,5.000049991798719,0.00013652655288240445,0.0031927916967586173,0
1163,0.046519999999999895,5.000707572102282,-0.00019226327513760522,0.003526886071605957,0
1164,0.046559999999999935,5.000049991798719,0.00013652655288240445,0.003203397882101674,0
1165,0.046599999999999975,4.99972120164681,0.0007941062093044515,0.0025511169227447313,0
1166,0.046640000000000015,5.000378781950543,0.0007941062093044515,0.0025564126452152156,0
1167,0.046680000000000055,4.99972120164681,0.0014516858662357995,0.0019041257030110214,0
1168,0.046720000000000095,5.000049991798719,0.0014516858662357995,0.001909415376841681,0
1169,0.04675999999999991,5.000378781950543,0.0014516858662357995,0.0019147019766184948,0
1170,0.04679999999999995,4.99972120164681,0.0014516858662357995,0.0019199854691801838,0
1171,0.04683999999999999,5.000049991798719,0.0021092655236763236,0.0012676861639212772,0
1172,0.04688000000000003,5.000378781950543,0.001780475694892425,0.0016017531713383732,0
1173,0.04692000000000007,4.999392411494816,0.0021092655236763236,0.0012782373144677684,0
1174,0.04696000000000011,5.000049991798719,0.0014516858662357995,0.0019410877039273246,0
1175,0.04699999999999993,4.99972120164681,0.001780475694892425,0.0016175653342185101,0
1176,0.04703999999999997,5.000049991798719,0.001122896037706475,0.0022804091441017433,0
1177,0.04708000000000001,5.000049991798719,0.0014516858662357995,0.001956880128837794,0
1178,0.04712000000000005,5.000049991798719,0.001780475694892425,0.0016333477408314394,0
1179,0.04716000000000009,4.99972120164681,0.0014516858662357995,0.001967391604338487,0
1180,0.04719999999999991,4.99972120164681,0.0014516858662357995,0.001972642200203035,0
1181,0.04723999999999995,5.000049991798719,0.001780475694892425,0.0016490994952380357,0
1182,0.04727999999999999,4.999392411494816,0.0014516858662357995,0.001983132942225565,0
1183,0.04732000000000003,4.99972120164681,0.0014516858662357995,0.0019883730220074604,0
1184,0.04736000000000007,5.000378781950543,0.0014516858662357995,0.001993609530051843,0
1185,0.04740000000000011,5.000378781950543,0.0014516858662357995,0.00199884243317026,0
1186,0.04743999999999993,4.99972120164681,0.0027668451816259126,0.000688912382784462,0
1187,0.04747999999999997,4.99972120164681,0.001780475694892425,0.0016805074632206033,0
1188,0.04752000000000001,4.999392411494816,0.0007941062093044515,0.0026720988380228555,0
1189,0.04756000000000005,4.99972120164681,0.0024380553525874815,0.0010333678462801253,0
1190,0.04760000000000009,4.99972120164681,0.001780475694892425,0.0016961618846572696,0
1191,0.047639999999999905,4.999392411494816,0.0024380553525874815,0.0010437928036035023,0
1192,0.047679999999999945,5.000049991798719,0.0014516858662357995,0.002035369029374991,0
1193,0.047719999999999985,4.99972120164681,0.0021092655236763236,0.0013829922409542856,0
1194,0.047760000000000025,5.000049991798719,0.0024380553525874815,0.0010594013774868904,0
1195,0.047800000000000065,5.000049991798719,0.0014516858662357995,0.00205096589253293,0
1196,0.047840000000000105,5.000049991798719,0.0021092655236763236,0.0013985772938669952,0
1197,0.04787999999999992,5.000049991798719,0.003424424840084442,8.860503314658125e-05,0
1198,0.04791999999999996,5.000049991798719,0.0014516858662357995,0.0020665270264324377,0
1199,0.04796,5.000378781950543,0.0024380553525874815,0.0010853364901076707,0
1200,0.04800000000000004,5.000378781950543,0.001780475694892425,0.0017480909952635746,0
1201,0.04804000000000008,5.000378781950543,0.001780475694892425,0.0017532617070069086,0
1202,0.0480799999999999,5.000049991798719,0.0024380553525874815,0.001100848592190813,0
1203,0.04811999999999994,5.000049991798719,0.0014516858662357995,0.0020923804194150825,0
1204,0.04815999999999998,5.000378781950543,0.0014516858662357995,0.0020975385251444257,0
1205,0.04820000000000002,5.000707572102282,0.0021092655236763236,0.001445112705158531,0
1206,0.04824000000000006,4.99972120164681,0.0021092655236763236,0.0014502622412126466,0
1207,0.0482800000000001,5.000049991798719,0.0014516858662357995,0.0021129871001869145,0
1208,0.04831999999999992,5.000049991798719,0.0024380553525874815,0.0011317584477349577,0
1209,0.04835999999999996,4.999392411494816,0.001780475694892425,0.001794474538588543,0
1210,0.0484,5.000049991798719,0.0021092655236763236,0.0014708167091215425,0
1211,0.04844000000000004,4.99972120164681,0.0027668451816259126,0.0008183645835537906,0
1212,0.04848000000000008,4.99972120164681,0.0021092655236763236,0.0014810672738640022,0
1213,0.0485199999999999,4.99972120164681,0.0027668451816259126,0.0008286061151752144,0
1214,0.04855999999999994,5.000049991798719,0.0030956350107915753,0.0005049302190997373,0
1215,0.04859999999999998,5.000049991798719,0.001780475694892425,0.0018251988688557494,0
1216,0.04864000000000002,4.99972120164681,0.0024380553525874815,0.0011727239127298805,0
1217,0.04868000000000006,5.000049991798719,0.0014516858662357995,0.0021641934353173456,0
1218,0.0487200000000001,5.000049991798719,0.0021092655236763236,0.001511709115742367,0
1219,0.048759999999999915,5.000378781950543,0.0030956350107915753,0.0005304302350947524,0
1220,0.048799999999999955,4.99972120164681,0.0021092655236763236,0.0015218855642614893,0
1221,0.048839999999999995,4.99972120164681,0.0021092655236763236,0.0015269666088882838,0
1222,0.048880000000000035,5.000707572102282,0.0024380553525874815,0.001203252994180655,0
1223,0.048920000000000075,5.000049991798719,0.0021092655236763236,0.0015371141738837438,0
1224,0.048960000000000115,5.000378781950543,0.0024380553525874815,0.001213390799375099,0
1225,0.04899999999999993,4.99972120164681,0.0027668451816259126,0.0008896624953827234,0
1226,0.04903999999999997,5.000049991798719,0.0014516858662357995,0.002209878373506449,0
1227,0.04908000000000001,5.000378781950543,0.004082004499051814,-0.0004153886918330449,0
1228,0.04912000000000005,4.999392411494816,0.0024380553525874815,0.0012336069939176543,0
1229,0.04916000000000009,5.000049991798719,0.0024380553525874815,0.0012386484720926876,0
1230,0.04919999999999991,4.999392411494816,0.004082004499051814,-0.00040026429021698326,0
1231,0.04923999999999995,5.001036362253937,0.0007941062093044515,0.002892665256768047,0
1232,0.04927999999999999,5.000707572102282,0.004082004499051814,-0.00039020693554256197,0
1233,0.04932000000000003,4.999063621342738,0.0014516858662357995,0.0022451326020383206,0
1234,0.04936000000000007,4.999392411494816,0.003424424840084442,0.00027740930742492986,0
1235,0.04940000000000011,4.998734831190575,0.0024380553525874815,0.0012687892157832764,0
1236,0.04943999999999993,4.99972120164681,0.0024380553525874815,0.0012737943454403252,0
1237,0.04947999999999997,4.999063621342738,0.0030956350107915753,0.0006212144928725077,0
1238,0.04952000000000001,5.001365152405508,0.0004653163810297567,0.003256527571447705,0
1239,0.04956000000000005,5.001365152405508,0.0021092655236763236,0.001617567488004084,0
1240,0.04960000000000009,5.000049991798719,0.004082004499051814,-0.00035018785055158236,0
1241,0.049639999999999906,5.000378781950543,0.003424424840084442,0.0003123699900949334,0
1242,0.049679999999999946,5.000378781950543,0.0030956350107915753,0.0006461325131841096,0
1243,0.049719999999999986,5.000049991798719,0.0027668451816259126,0.0009798895155367629,0
1244,0.049760000000000026,5.000049991798719,0.0027668451816259126,0.0009848511354038896,0
1245,0.049800000000000066,5.000378781950543,0.0027668451816259126,0.0009898071692568161,0
1246,0.049840000000000106,4.99972120164681,0.0024380553525874815,0.0013235474134561192,0
1247,0.049879999999999924,4.99972120164681,0.0027668451816259126,0.000999702348225405,0
1248,0.049919999999999964,5.000049991798719,0.0030956350107915753,0.0006758515988702293,0
1249,0.049960000000000004,5.000049991798719,0.0030956350107915753,0.0006807849620567076,0
1250,0.050000000000000044,4.99972120164681,0.0027668451816259126,0.0010145024051756314,0
1251,0.050040000000000084,4.99972120164681,0.003753214669504526,3.305474942568798e-05,0
1252,0.0500799999999999,4.99972120164681,0.0027668451816259126,0.0010243402550351105,0
1253,0.05011999999999994,5.000049991798719,0.004082004499051814,-0.00028590889161272167,0
1254,0.05015999999999998,4.99972120164681,0.003424424840084442,0.00037657505864374316,0
1255,0.05020000000000002,5.000049991798719,0.003424424840084442,0.0003814734379265529,0
1256,0.05024000000000006,5.000049991798719,0.0027668451816259126,0.0010439455311634918,0
1257,0.0502800000000001,5.000378781950543,0.003424424840084442,0.00039125233050032364,0
1258,0.05031999999999992,4.99972120164681,0.0030956350107915753,0.0007249226081465798,0
1259,0.05035999999999996,4.99972120164681,0.003424424840084442,0.00040100718532621194,0
1260,0.0504,5.000049991798719,0.003424424840084442,0.0004058755174991672,0
1261,0.05044000000000004,5.000707572102282,0.003424424840084442,0.00041073774297446406,0
1262,0.05048000000000008,5.000049991798719,0.004082004499051814,-0.00024198582959257618,0
1263,0.0505199999999999,5.000049991798719,0.004082004499051814,-0.0002371359146234311,0
1264,0.05055999999999994,5.000049991798719,0.003424424840084442,0.00042528745554703184,0
1265,0.05059999999999998,5.000378781950543,0.003424424840084442,0.0004301249306708269,0
1266,0.05064000000000002,4.99972120164681,0.004082004499051814,-0.00022262352154338826,0
1267,0.05068000000000006,5.000049991798719,0.003753214669504526,0.00011099121411724472,0
1268,0.0507200000000001,4.99972120164681,0.003424424840084442,0.00044459961676412757,0
1269,0.050759999999999916,5.000049991798719,0.004082004499051814,-0.00020816783408701169,0
1270,0.050799999999999956,4.99972120164681,0.004410794328726292,-0.0005321518529568538,0
1271,0.050839999999999996,4.99972120164681,0.003753214669504526,0.0001302271875801785,0
1272,0.050880000000000036,5.000049991798719,0.004082004499051814,-0.00019376972229545424,0
1273,0.050920000000000076,4.999392411494816,0.003424424840084442,0.0004685963625695173,0
1274,0.050960000000000116,5.000378781950543,0.003424424840084442,0.000473376262586677,0
1275,0.050999999999999934,4.99972120164681,0.004082004499051814,-0.0001794300543260241,0
1276,0.051039999999999974,5.000049991798719,0.004410794328726292,-0.0005034531319657609,0
1277,0.051080000000000014,5.000378781950543,0.004082004499051814,-0.00016990317230903586,0
1278,0.051120000000000054,4.99972120164681,0.005397163818512657,-0.0014803090158475338,0
1279,0.051160000000000094,4.99972120164681,0.004739584158527918,-0.0008179825659823375,0
1280,0.05119999999999991,5.000378781950543,0.004410794328726292,-0.0004844526642984316,0
1281,0.05123999999999995,5.000707572102282,0.003753214669504526,0.00017786031687710242,0
1282,0.05127999999999999,5.000378781950543,0.004739584158527918,-0.00080378263202513,0
1283,0.05132000000000003,5.000049991798719,0.00506837398845672,-0.0011278527355429763,0
1284,0.05136000000000007,5.000049991798719,0.003753214669504526,0.0001920194642591527,0
1285,0.05140000000000011,4.99972120164681,0.003753214669504526,0.00019672546772429855,0
1286,0.05143999999999993,5.000049991798719,0.004739584158527918,-0.0007849449270151878,0
1287,0.05147999999999997,5.000049991798719,0.004410794328726292,-0.0004514629438797618,0
1288,0.05152000000000001,5.001036362253937,0.004082004499051814,-0.00011798793356259871,0
1289,0.05156000000000005,4.99972120164681,0.004082004499051814,-0.00011330975732391389,0
1290,0.05160000000000009,4.99972120164681,0.004739584158527918,-0.0007662182766498275,0
1291,0.05163999999999991,5.000049991798719,0.004082004499051814,-0.0001039745447678599,0
1292,0.05167999999999995,4.99972120164681,0.004739584158527918,-0.0007568972312093167,0
1293,0.05171999999999999,4.99972120164681,0.003753214669504526,0.00023412209987982296,0
1294,0.05176000000000003,5.000707572102282,0.005397163818512657,-0.001405184369599655,0
1295,0.05180000000000007,5.000049991798719,0.004410794328726292,-0.0004141793943601834,0
1296,0.05184000000000011,4.99972120164681,0.004082004499051814,-8.07613048165747e-05,0
1297,0.051879999999999926,4.99972120164681,0.004739584158527918,-0.0007337199614856618,0
1298,0.051919999999999966,4.99972120164681,0.004410794328726292,-0.00040031641738671065,0
1299,0.051960000000000006,5.000707572102282,0.004739584158527918,-0.0007244998528174416,0
1300,0.052000000000000046,5.000049991798719,0.005397163818512657,-0.001377480469743352,0
1301,0.052040000000000086,4.99972120164681,0.004410794328726292,-0.00038651931956448066,0
1302,0.052079999999999904,5.000049991798719,0.004410794328726292,-0.0003819350731609039,0
1303,0.052119999999999944,4.99972120164681,0.005397163818512657,-0.0013637277618233174,0
1304,0.052159999999999984,5.000378781950543,0.00506837398845672,-0.0010303686071815674,0
1305,0.052200000000000024,4.99972120164681,0.00506837398845672,-0.0010258067903599483,0
1306,0.052240000000000064,5.000049991798719,0.005397163818512657,-0.0013500423425517952,0
1307,0.052280000000000104,4.99972120164681,0.005397163818512657,-0.0013454956348055774,0
1308,0.05231999999999992,5.000049991798719,0.005397163818512657,-0.0013409565283043121,0
1309,0.05235999999999996,5.000378781950543,0.004739584158527918,-0.0006788453941568148,0
1310,0.0524,5.000707572102282,0.005397163818512657,-0.001331901243377062,0
1311,0.05244000000000004,4.99972120164681,0.005397163818512657,-0.001327385127036538,0
1312,0.05248000000000008,4.99972120164681,0.00506837398845672,-0.0009940869060554134,0
1313,0.0525199999999999,5.000378781950543,0.00506837398845672,-0.000989586271502329,0
1314,0.05255999999999994,4.999392411494816,0.004082004499051814,1.2760651616648341e-06,0
1315,0.05259999999999998,5.000378781950543,0.005397163818512657,-0.001309398225220841,0
1316,0.05264000000000002,5.000049991798719,0.004739584158527918,-0.0006473413851898696,0
1317,0.05268000000000006,5.000378781950543,0.005397163818512657,-0.0013004517449761652,0
1318,0.0527200000000001,5.000049991798719,0.005397163818512657,-0.0012959903554052615,0
1319,0.05275999999999992,5.000378781950543,0.005397163818512657,-0.0012915369072054477,0
1320,0.05279999999999996,5.000049991798719,0.00506837398845672,-0.0009583016010278745,0
1321,0.05284,5.000378781950543,0.006054743479005864,-0.0019402336182039225,0
1322,0.05288000000000004,4.99972120164681,0.00506837398845672,-0.000949434687663603,0
1323,0.05292000000000008,5.000378781950543,0.004739584158527918,-0.0006162234817216651,0
1324,0.052959999999999896,5.000378781950543,0.005725953648695714,-0.0015981796904129667,0
1325,0.052999999999999936,4.99972120164681,0.00506837398845672,-0.0009361948737549287,0
1326,0.053039999999999976,4.999392411494816,0.00506837398845672,-0.0009317978728760848,0
1327,0.053080000000000016,4.99972120164681,0.005725953648695714,-0.0015849887182208685,0
1328,0.053120000000000056,5.000049991798719,0.005725953648695714,-0.0015806081197171362,0
1329,0.053160000000000096,5.000049991798719,0.005397163818512657,-0.0012474459377878142,0
1330,0.053199999999999914,5.000049991798719,0.00506837398845672,-0.0009142920330709558,0
1331,0.053239999999999954,4.999392411494816,0.004739584158527918,-0.0005811464358550585,0
1332,0.053279999999999994,4.99972120164681,0.005725953648695714,-0.0015631684963584172,0
1333,0.053320000000000034,4.99972120164681,0.006054743479005864,-0.0018876192648356964,0
1334,0.053360000000000074,5.000049991798719,0.006054743479005864,-0.0018832886010031165,0
1335,0.053400000000000114,5.000378781950543,0.006383533309443135,-0.0022077561957363685,0
1336,0.05343999999999993,5.000049991798719,0.006712323140007484,-0.0025322322488128134,0
1337,0.05347999999999997,5.000049991798719,0.007041112970698912,-0.002856716790279022,0
1338,0.05352000000000001,4.99972120164681,0.006054743479005864,-0.0018660505276287547,0
1339,0.05356000000000005,4.99972120164681,0.005397163818512657,-0.0012041826444101325,0
1340,0.05360000000000009,4.999392411494816,0.006383533309443135,-0.0021862724907690235,0
1341,0.05363999999999991,5.000049991798719,0.006054743479005864,-0.0018532116237939848,0
1342,0.05367999999999995,4.999392411494816,0.00506837398845672,-0.0008625797345785883,0
1343,0.05371999999999999,5.000378781950543,0.005397163818512657,-0.001187115833634931,0
1344,0.05376000000000003,5.000049991798719,0.004739584158527918,-0.0005252911400695967,0
1345,0.05380000000000007,5.000049991798719,0.005725953648695714,-0.0015074243237850591,0
1346,0.05384000000000011,4.99972120164681,0.006383533309443135,-0.0021607764348743398,0
1347,0.05387999999999993,5.000049991798719,0.00506837398845672,-0.0008413983506463172,0
1348,0.05391999999999997,5.000049991798719,0.006712323140007484,-0.0024811375549504892,0
1349,0.05396000000000001,4.99972120164681,0.006054743479005864,-0.0018193567922316768,0
1350,0.05400000000000005,5.000378781950543,0.005397163818512657,-0.0011575849050406764,0
