,seconds,Trig,EMG_amplitude,EMG_amplitude_filter,peaks
0,0.0,5.000378781950543,0.001122896037706475,-0.0017340368288265807,0
1,4.0000000000040004e-05,5.001365152405508,0.0014516858662357995,-0.001401967041036524,0
2,8.000000000008001e-05,5.000378781950543,0.001780475694892425,-0.0010698950449123347,0
3,0.00011999999999989797,5.000378781950543,0.0021092655236763236,-0.0007378208457743788,0
4,0.00015999999999993797,5.000707572102282,0.0004653163810297567,-0.002378483420507599,0
5,0.00019999999999997797,5.000707572102282,-0.001178632758433426,-0.004019143799832208,0
6,0.00024000000000001798,5.000378781950543,-0.0015074225859438989,-0.004344642680319786,0
7,0.000280000000000058,5.000707572102282,-0.00019226327513760522,-0.003026190240954007,0
8,0.000320000000000098,4.999392411494816,0.001780475694892425,-0.0010501559661824321,0
9,0.00035999999999991594,5.000049991798719,0.003424424840084442,0.0005970906545718546,0
10,0.00039999999999995595,5.000707572102282,0.001122896037706475,-0.0017011385067912475,0
11,0.00043999999999999595,5.000049991798719,0.0021092655236763236,-0.0007114672197288659,0
12,0.00048000000000003595,5.000378781950543,0.00013652655288240445,-0.0026809022347342865,0
13,0.000520000000000076,5.000049991798719,-0.0018362124133269458,-0.004650335095847662,0
14,0.0005599999999998939,5.000378781950543,0.0014516858662357995,-0.0013591285672767271,0
15,0.0005999999999999339,5.000049991798719,0.0007941062093044515,-0.0020133978366896933,0
16,0.0006399999999999739,5.000049991798719,0.0007941062093044515,-0.002010085316069903,0
17,0.0006800000000000139,5.000049991798719,0.0030956350107915753,0.00029475813372289067,0
18,0.0007200000000000539,5.000049991798719,-0.002165002240582567,-0.004962562347081962,0
19,0.0007600000000000939,4.99972120164681,-0.00019226327513760522,-0.0029865044942331016,0
20,0.0007999999999999119,5.000049991798719,0.001780475694892425,-0.0010104445254002757,0
21,0.0008399999999999519,5.000049991798719,0.0004653163810297567,-0.0023222807345036687,0
22,0.0008799999999999919,5.002022732708393,0.0007941062093044515,-0.0019901657009623415,0
23,0.0009200000000000319,4.998734831190575,0.00013652655288240445,-0.002644418057066204,0
24,0.0009600000000000719,5.000707572102282,0.00013652655288240445,-0.002641088667158957,0
25,0.001000000000000112,4.999063621342738,-0.00348016154833046,-0.006254445294344673,0
26,0.0010399999999999299,5.000049991798719,0.0024380553525874815,-0.00033289484075551526,0
27,0.0010799999999999699,5.000378781950543,-0.0015074225859438989,-0.00427503715345407,0
28,0.0011200000000000099,5.001693942556992,0.00013652655288240445,-0.0026277503211224592,0
29,0.0011600000000000499,4.99972120164681,-0.00348016154833046,-0.006241098666653284,0
30,0.0012000000000000899,4.99972120164681,0.0014516858662357995,-0.0013059094397306409,0
31,0.0012399999999999078,4.998406041038327,-0.0008498429307955274,-0.003604094373240225,0
32,0.0012799999999999478,4.997748460733576,0.0021092655236763236,-0.0006416400095968811,0
33,0.0013199999999999878,5.000049991798719,-0.0024937920677107622,-0.0052413496516849145,0
34,0.0013600000000000279,4.999392411494816,-0.0005210531030302584,-0.003265260703106598,0
35,0.0014000000000000679,4.99972120164681,-0.00019226327513760522,-0.002933118862252739,0
36,0.0014400000000001079,5.000378781950543,0.00013652655288240445,-0.00260097499775008,0
37,0.0014799999999999258,4.99972120164681,0.0007941062093044515,-0.0019400392868724572,0
38,0.0015199999999999658,4.99972120164681,-0.0015074225859438989,-0.004238210015247387,0
39,0.0015600000000000058,5.000049991798719,-0.0008498429307955274,-0.0035772702863693874,0
40,0.0016000000000000458,5.000378781950543,-0.0028225818947114484,-0.005546647175267645,0
41,0.0016400000000000858,5.000378781950543,-0.0005210531030302584,-0.003241754312855469,0
42,0.0016799999999999038,5.000378781950543,0.0007941062093044515,-0.001923228939657682,0
43,0.0017199999999999438,4.99972120164681,0.00013652655288240445,-0.0025774405506723136,0
44,0.0017599999999999838,5.000378781950543,-0.0008498429307955274,-0.003560440009992758,0
45,0.0018000000000000238,5.000049991798719,0.001780475694892425,-0.0009267493865980192,0
46,0.0018400000000000638,5.000049991798719,0.00013652655288240445,-0.0025673245631592065,0
47,0.0018800000000001038,5.000049991798719,-0.0024937920677107622,-0.005194267256175231,0
48,0.0019199999999999218,5.000378781950543,-0.004466531027802631,-0.007163628332181849,0
49,0.0019599999999999618,5.000378781950543,-0.0028225818947114484,-0.0055162993641239555,0
50,0.0020000000000000018,5.000378781950543,-0.001178632758433426,-0.003868968447630836,0
51,0.0020400000000000418,5.000707572102282,-0.0015074225859438989,-0.00419437455531733,0
52,0.002080000000000082,5.000378781950543,0.00013652655288240445,-0.0025470397627040957,0
53,0.0021199999999998997,5.000049991798719,0.0024380553525874815,-0.00024212338090147064,0
54,0.0021599999999999397,5.000378781950543,0.0004653163810297567,-0.002211472847709763,0
55,0.0021999999999999797,5.000707572102282,0.001122896037706475,-0.0015505017692968633,0
56,0.0022400000000000198,4.99972120164681,-0.0031513717215847087,-0.005821376195536627,0
57,0.0022800000000000598,5.000049991798719,-0.0015074225859438989,-0.0041740318212070485,0
58,0.0023200000000000998,4.999392411494816,-0.0015074225859438989,-0.0041706346825651636,0
59,0.0023599999999999177,5.000707572102282,-0.0005210531030302584,-0.0031808661667471084,0
60,0.0023999999999999577,4.999392411494816,-0.0008498429307955274,-0.0035062550730423584,0
61,0.0024399999999999977,5.000049991798719,-0.0008498429307955274,-0.0035028522687100064,0
62,0.0024800000000000377,5.000049991798719,-0.003808951374948702,-0.006458556031378095,0
63,0.0025200000000000777,5.000378781950543,-0.0031513717215847087,-0.0057975698250922105,0
64,0.0025599999999998957,5.000378781950543,-0.0028225818947114484,-0.005465371579582484,0
65,0.0025999999999999357,5.000049991798719,-0.0031513717215847087,-0.0057907511278332355,0
66,0.0026399999999999757,5.000378781950543,0.00013652655288240445,-0.002499440720492397,0
67,0.0026800000000000157,5.000378781950543,-0.0015074225859438989,-0.004139975877934856,0
68,0.0027200000000000557,5.000049991798719,0.0024380553525874815,-0.0001910821152568984,0
69,0.0027600000000000957,5.000049991798719,-0.0008498429307955274,-0.0034755627374842358,0
70,0.0027999999999999137,5.000049991798719,-0.003808951374948702,-0.006431251689232546,0
71,0.0028399999999999537,4.999392411494816,-0.0008498429307955274,-0.003468721927191454,0
72,0.0028799999999999937,5.000049991798719,-0.003808951374948702,-0.006424407233746014,0
73,0.0029200000000000337,5.000049991798719,-0.001178632758433426,-0.0037906636657000147,0
74,0.0029600000000000737,4.99972120164681,0.0007941062093044515,-0.0018144979382840928,0
75,0.0029999999999998916,5.000049991798719,0.0004653163810297567,-0.0021398592045244105,0
76,0.0030399999999999316,5.000378781950543,-0.00019226327513760522,-0.0027940085020982425,0
77,0.0030799999999999716,5.000378781950543,-0.0005210531030302584,-0.0031193661806415704,0
78,0.0031200000000000117,5.000049991798719,-0.00019226327513760522,-0.0027871424184533226,0
79,0.0031600000000000517,5.000378781950543,-0.0024937920677107622,-0.0050852354976002965,0
80,0.0032000000000000917,5.000049991798719,-0.0018362124133269458,-0.004424218356481538,0
81,0.0032399999999999096,5.000049991798719,0.001780475694892425,-0.000804090994046427,0
82,0.0032799999999999496,5.000378781950543,-0.0005210531030302584,-0.003102178776106664,0
83,0.0033199999999999896,5.000378781950543,-0.0018362124133269458,-0.004413895314734427,0
84,0.0033600000000000296,4.99972120164681,-0.00348016154833046,-0.006054399928108881,0
85,0.0034000000000000696,5.000049991798719,-0.002165002240582567,-0.0047357943546242395,0
86,0.0034400000000001096,5.000049991798719,-0.004466531027802631,-0.007033875137858395,0
87,0.0034799999999999276,5.000378781950543,-0.001178632758433426,-0.00374252713211875,0
88,0.0035199999999999676,5.000378781950543,-0.0008498429307955274,-0.00341028584159657,0
89,0.0035600000000000076,5.000378781950543,-0.00019226327513760522,-0.002749253002417312,0
90,0.0036000000000000476,5.000049991798719,-0.001178632758433426,-0.0037321675874376074,0
91,0.0036400000000000876,4.99972120164681,0.00013652655288240445,-0.0024135516689810063,0
92,0.0036799999999999056,5.000049991798719,-0.0018362124133269458,-0.0043828323250793486,0
93,0.0037199999999999456,5.000049991798719,-0.0015074225859438989,-0.00405058249051613,0
94,0.0037599999999999856,4.99972120164681,-0.0005210531030302584,-0.0030607513092602697,0
95,0.0038000000000000256,5.000049991798719,0.0007941062093044515,-0.00174212861333445,0
96,0.0038400000000000656,5.000049991798719,-0.0018362124133269458,-0.004368982173045037,0
97,0.0038800000000001056,4.99972120164681,0.0014516858662357995,-0.0010776171571570058,0
98,0.0039199999999999235,5.000049991798719,-0.0005210531030302584,-0.003046887722624532,0
99,0.0039599999999999635,5.000707572102282,-0.0008498429307955274,-0.0033722074850552775,0
100,0.0040000000000000036,5.000707572102282,-0.0015074225859438989,-0.004026315419276387,0
101,0.0040400000000000436,5.000049991798719,-0.0008498429307955274,-0.003365262393557265,0
102,0.0040800000000000836,5.000378781950543,0.00013652655288240445,-0.0023754178956203248,0
103,0.0041199999999999015,5.000707572102282,-0.001178632758433426,-0.0036871005549500924,0
104,0.0041599999999999415,5.000378781950543,-0.0024937920677107622,-0.004998781580481483,0
105,0.0041999999999999815,5.000378781950543,-0.0047953208540382625,-0.007296830457276279,0
106,0.0042400000000000215,5.000378781950543,-0.003808951374948702,-0.00630697944884632,0
107,0.0042800000000000615,5.000378781950543,-0.0015074225859438989,-0.0040019675166784,0
108,0.0043200000000001015,5.000378781950543,-0.00019226327513760522,-0.0026833234548771607,0
109,0.0043599999999999195,5.000049991798719,0.0014516858662357995,-0.0010358879606737741,0
110,0.0043999999999999595,5.001036362253937,-0.00019226327513760522,-0.002676349153384844,0
111,0.0044399999999999995,5.000049991798719,0.0030956350107915753,0.0006150386710304478,0
112,0.0044800000000000395,4.99972120164681,0.003753214669504526,0.0012761094520388414,0
113,0.0045200000000000795,5.000049991798719,0.001122896037706475,-0.001350716479674756,0
114,0.0045599999999998975,5.000049991798719,0.001122896037706475,-0.001347222207827486,0
115,0.0045999999999999375,5.000049991798719,-0.0008498429307955274,-0.0033164653387514507,0
116,0.0046399999999999775,5.000378781950543,-0.003808951374948702,-0.006272076385633726,0
117,0.0046800000000000175,5.000378781950543,-0.003808951374948702,-0.0062685774347137155,0
118,0.0047200000000000575,5.000049991798719,-0.0031513717215847087,-0.005607497282830181,0
119,0.0047600000000000975,5.000049991798719,-0.001178632758433426,-0.003631256279615236,0
120,0.0047999999999999154,5.000049991798719,0.00013652655288240445,-0.0023125933927528623,0
121,0.0048399999999999554,5.000049991798719,0.0014516858662357995,-0.0009939289744371155,0
122,0.0048799999999999955,5.000049991798719,0.0004653163810297567,-0.00197679183133789,0
123,0.0049200000000000355,5.000049991798719,-0.0008498429307955274,-0.0032884429975936977,0
124,0.0049600000000000755,5.000378781950543,-0.0008498429307955274,-0.003284933340844531,0
125,0.004999999999999893,5.000049991798719,0.0021092655236763236,-0.00032231372453413827,0
126,0.005039999999999933,5.000707572102282,0.0024380553525874815,9.988765208835803e-06,0
127,0.005079999999999973,5.000378781950543,0.0014516858662357995,-0.0009728665674196418,0
128,0.005120000000000013,5.000049991798719,-0.0018362124133269458,-0.004257249206475454,0
129,0.005160000000000053,5.000049991798719,-0.002165002240582567,-0.0045825219125538415,0
130,0.0052000000000000934,5.000049991798719,-0.0005210531030302584,-0.002935054179273178,0
131,0.005239999999999911,5.000378781950543,0.0004653163810297567,-0.0019451646310586121,0
132,0.005279999999999951,4.99972120164681,0.00013652655288240445,-0.0022704329327558944,0
133,0.005319999999999991,5.001036362253937,0.0024380553525874815,3.4618849558345696e-05,0
134,0.005360000000000031,5.000049991798719,-0.001178632758433426,-0.0035785448288364625,0
135,0.005400000000000071,5.000049991798719,0.0024380553525874815,4.166915867957928e-05,0
136,0.005440000000000111,4.99972120164681,-0.00019226327513760522,-0.0025851221548349474,0
137,0.005479999999999929,5.000707572102282,0.0007941062093044515,-0.0015952239246262378,0
138,0.005519999999999969,5.000378781950543,0.00013652655288240445,-0.002249273409890565,0
139,0.005560000000000009,5.000378781950543,-0.0015074225859438989,-0.003889690958338809,0
140,0.005600000000000049,5.000049991798719,-0.0031513717215847087,-0.005530107090557638,0
141,0.005640000000000089,5.000049991798719,-0.0028225818947114484,-0.005197782853400576,0
142,0.005679999999999907,4.99972120164681,-0.0008498429307955274,-0.0032215080785267967,0
143,0.005719999999999947,5.000378781950543,-0.0008498429307955274,-0.0032179708730883136,0
144,0.005759999999999987,5.000378781950543,-0.00019226327513760522,-0.002556852623710372,0
145,0.005800000000000027,5.000378781950543,0.0027668451816259126,0.00040579580884996923,0
146,0.005840000000000067,5.000049991798719,0.001122896037706475,-0.0012346119834062016,0
147,0.005880000000000107,4.999392411494816,0.001780475694892425,-0.0005734896049065306,0
148,0.005919999999999925,5.000049991798719,0.001780475694892425,-0.0005699455201639524,0
149,0.005959999999999965,4.99972120164681,0.001780475694892425,-0.0005664000782197201,0
150,0.006000000000000005,4.99972120164681,-0.0015074225859438989,-0.0038507515661429575,0
151,0.006040000000000045,5.000378781950543,-0.00019226327513760522,-0.0025320441176931267,0
152,0.006080000000000085,5.000378781950543,-0.0024937920677107622,-0.004830023434136278,0
153,0.006119999999999903,5.000378781950543,0.00013652655288240445,-0.0021961540051762133,0
154,0.006159999999999943,5.000378781950543,0.0027668451816259126,0.0004377167579159365,0
155,0.006199999999999983,4.99972120164681,0.0027668451816259126,0.0004412702119855937,0
156,0.006240000000000023,5.000049991798719,0.001780475694892425,-0.0005415445072235246,0
157,0.006280000000000063,5.000378781950543,-0.00019226327513760522,-0.0025107274025463464,0
158,0.006320000000000103,4.99972120164681,-0.002165002240582567,-0.0044799089923787,0
159,0.006359999999999921,5.000049991798719,-0.00019226327513760522,-0.0025036113566987315,0
160,0.006399999999999961,5.000378781950543,-0.002165002240582567,-0.0044727903635748325,0
161,0.006440000000000001,4.99972120164681,-0.001178632758433426,-0.003482859640817081,0
162,0.006480000000000041,5.000049991798719,0.00013652655288240445,-0.0021641378131525197,0
163,0.006520000000000081,5.000049991798719,0.0014516858662357995,-0.0008454147140154323,0
164,0.006559999999999899,5.000049991798719,-0.0008498429307955274,-0.0031433784621387835,0
165,0.006599999999999939,5.000049991798719,-0.0008498429307955274,-0.003139812156422724,0
166,0.006639999999999979,5.000378781950543,-0.0005210531030302584,-0.002807454772455015,0
167,0.006680000000000019,5.000707572102282,-0.0005210531030302584,-0.002803885972093398,0
168,0.006720000000000059,5.000049991798719,0.001122896037706475,-0.0011563667931685736,0
169,0.006760000000000099,5.000378781950543,-0.0005210531030302584,-0.002796744664228932,0
170,0.006799999999999917,5.000378781950543,0.0024380553525874815,0.00016593628620978742,0
171,0.006839999999999957,5.000049991798719,0.0024380553525874815,0.00016950999982622613,0
172,0.006879999999999997,5.000049991798719,-0.0008498429307955274,-0.0031148133574995,0
173,0.006920000000000037,5.000049991798719,0.00013652655288240445,-0.0021248677416835227,0
174,0.006960000000000077,5.000378781950543,-0.0008498429307955274,-0.0031076598935081672,0
175,0.006999999999999895,5.000049991798719,-0.00019226327513760522,-0.0024465017126526884,0
176,0.007039999999999935,4.99972120164681,0.0004653163810297567,-0.001785342344319911,0
177,0.007079999999999975,5.000049991798719,0.0014516858662357995,-0.00079539196636244,0
178,0.007120000000000015,5.000707572102282,0.0007941062093044515,-0.001449389556343622,0
179,0.007160000000000055,5.000707572102282,0.0021092655236763236,-0.0001306470072155474,0
180,0.007200000000000095,5.000049991798719,-0.0015074225859438989,-0.003743750720671645,0
181,0.007239999999999913,5.000378781950543,-0.00019226327513760522,-0.0024250058586968424,0
182,0.007279999999999953,5.000378781950543,-0.0008498429307955274,-0.003078998814590809,0
183,0.007319999999999993,5.000378781950543,-0.00019226327513760522,-0.0024178313169878323,0
184,0.007360000000000033,5.000049991798719,0.00013652655288240445,-0.00208545251126141,0
185,0.007400000000000073,5.000378781950543,0.0024380553525874815,0.00021966639548630026,0
186,0.007440000000000113,4.99972120164681,-0.001178632758433426,-0.003393430485586275,0
187,0.007479999999999931,5.000049991798719,0.00013652655288240445,-0.0020746788278523222,0
188,0.007519999999999971,4.99972120164681,0.0007941062093044515,-0.00141350571498363,0
189,0.007560000000000011,4.99972120164681,-0.00019226327513760522,-0.0023962806393971496,0
190,0.007600000000000051,5.000378781950543,-0.001178632758433426,-0.0033790544655345313,0
191,0.007640000000000091,5.000378781950543,0.00013652655288240445,-0.002060298406387705,0
192,0.007679999999999909,5.000049991798719,0.0004653163810297567,-0.0017279107461994944,0
193,0.007719999999999949,5.000049991798719,0.0021092655236763236,-8.036269377025094e-05,0
194,0.007759999999999989,4.999392411494816,-0.0008498429307955274,-0.0030358711671909936,0
195,0.007800000000000029,5.000049991798719,0.0014516858662357995,-0.0007307413243188613,0
196,0.00784000000000007,5.000378781950543,0.0007941062093044515,-0.0013847188771037632,0
197,0.00788000000000011,5.000378781950543,0.0007941062093044515,-0.001381115721141063,0
198,0.007919999999999927,4.99972120164681,0.0014516858662357995,-0.0007199318629254685,0
199,0.007959999999999967,5.000378781950543,0.00013652655288240445,-0.002031485936173095,0
200,0.008000000000000007,5.000049991798719,0.004739584158527918,0.002575177941894365,0
201,0.008040000000000047,4.99972120164681,0.004082004499051814,0.0019212055806457455,0
202,0.008080000000000087,5.000378781950543,0.001780475694892425,-0.0003767149059965805,0
203,0.008119999999999905,5.000378781950543,0.0014516858662357995,-0.0007018954043678345,0
204,0.008159999999999945,5.000378781950543,0.0014516858662357995,-0.0006982850678407351,0
205,0.008199999999999985,5.000049991798719,0.0014516858662357995,-0.0006946737316037973,0
206,0.008240000000000025,5.000049991798719,0.0014516858662357995,-0.0006910614021942204,0
207,0.008280000000000065,5.000707572102282,0.0027668451816259126,0.0006277112292355988,0
208,0.008320000000000105,5.000378781950543,0.004739584158527918,0.0026040645022596285,0
209,0.008359999999999923,4.99972120164681,0.0014516858662357995,-0.0006802185203812557,0
210,0.008399999999999963,5.000378781950543,0.0004653163810297567,-0.0016629717689652782,0
211,0.008440000000000003,5.000707572102282,0.0004653163810297567,-0.0016593545719361849,0
212,0.008480000000000043,5.000049991798719,0.0014516858662357995,-0.0006693669358629846,0
213,0.008520000000000083,5.000049991798719,0.0014516858662357995,-0.0006657478377320608,0
214,0.008559999999999901,5.000049991798719,0.0027668451816259126,0.0006530315164731491,0
215,0.008599999999999941,5.000049991798719,-0.00019226327513760522,-0.0023024559673759785,0
216,0.008639999999999981,5.000378781950543,0.0014516858662357995,-0.0006548849255790666,0
217,0.008680000000000021,5.000049991798719,-0.00019226327513760522,-0.0022952112456152986,0
218,0.008720000000000061,4.999392411494816,0.0027668451816259126,0.0006675209467983138,0
219,0.008760000000000101,5.000378781950543,0.0021092655236763236,1.3565932205725478e-05,0
220,0.008799999999999919,5.000378781950543,0.0027668451816259126,0.0006747711346079214,0
221,0.008839999999999959,4.99972120164681,0.003424424840084442,0.0013359772319980912,0
222,0.008879999999999999,5.000049991798719,0.003424424840084442,0.001339604558786925,0
223,0.008920000000000039,4.99972120164681,0.0007941062093044515,-0.0012870858639741553,0
224,0.008960000000000079,5.000378781950543,0.001780475694892425,-0.00029708729576958127,0
225,0.008999999999999897,5.000049991798719,0.0024380553525874815,0.0003641223125021311,0
226,0.009039999999999937,5.000049991798719,0.0021092655236763236,3.896329548478718e-05,0
227,0.009079999999999977,4.998734831190575,0.004739584158527918,0.0026729135968991914,0
228,0.009120000000000017,5.001036362253937,0.0007941062093044515,-0.001268931837745883,0
229,0.009160000000000057,4.99972120164681,0.003753214669504526,0.0016938099783894685,0
230,0.009200000000000097,4.99972120164681,0.00013652655288240445,-0.00191924394760443,0
231,0.009239999999999915,5.001365152405508,-0.0008498429307955274,-0.002901978412630404,0
232,0.009279999999999955,4.998406041038327,0.0021092655236763236,6.076588184268693e-05,0
233,0.009319999999999995,4.999392411494816,0.004082004499051814,0.002037141511889008,0
234,0.009360000000000035,4.997748460733576,0.0030956350107915753,0.0010544094862842504,0
235,0.009400000000000075,4.99972120164681,0.007041112970698912,0.00500352571014153,0
236,0.009439999999999893,4.999392411494816,0.0004653163810297567,-0.0015686318209786338,0
237,0.009479999999999933,5.001036362253937,0.00506837398845672,0.0030380656328956954,0
238,0.009519999999999973,5.000378781950543,0.004739584158527918,0.002712916430606757,0
239,0.009560000000000013,5.001693942556992,-0.0031513717215847087,-0.0051743980473846155,0
240,0.009600000000000053,4.999063621342738,0.005725953648695714,0.0037065694927820975,0
241,0.009640000000000093,5.001036362253937,0.0024380553525874815,0.000422314127603649,0
242,0.009679999999999911,5.000049991798719,-0.00019226327513760522,-0.002204360814874965,0
243,0.009719999999999951,4.99972120164681,0.004739584158527918,0.0027311310516216977,0
244,0.009759999999999991,4.999392411494816,0.004739584158527918,0.002734776225300272,0
245,0.009800000000000031,5.000049991798719,0.00506837398845672,0.003067211963012608,0
246,0.009840000000000071,4.999392411494816,0.0024380553525874815,0.00044053996228415014,0
247,0.009880000000000111,4.999392411494816,-0.0005210531030302584,-0.002514921137588507,0
248,0.009919999999999929,5.000049991798719,0.003753214669504526,0.0017629947045374804,0
249,0.009959999999999969,5.000378781950543,0.0014516858662357995,-0.0005348853220573191,0
250,0.010000000000000009,4.999392411494816,0.0021092655236763236,0.00012634381237121208,0
251,0.010040000000000049,5.000378781950543,0.0004653163810297567,-0.0015139551597471296,0
252,0.010080000000000089,5.000707572102282,0.004082004499051814,0.0021063838155642753,0
253,0.010119999999999907,5.000049991798719,0.0021092655236763236,0.0001372963774549452,0
254,0.010159999999999947,5.000378781950543,0.005397163818512657,0.0034288468827446987,0
255,0.010199999999999987,5.000378781950543,0.00506837398845672,0.003103709929534678,0
256,0.010240000000000027,4.99972120164681,0.00506837398845672,0.003107363465973092,0
257,0.010280000000000067,5.000049991798719,0.00506837398845672,0.0031110176551987796,0
258,0.010320000000000107,5.000049991798719,0.0027668451816259126,0.0008131436835704764,0
259,0.010359999999999925,5.000378781950543,0.003424424840084442,0.0014743788163926411,0
260,0.010399999999999965,5.000378781950543,0.004410794328726292,0.002464404411738361,0
261,0.010440000000000005,5.000378781950543,-0.001178632758433426,-0.003121365943203358,0
262,0.010480000000000045,4.99972120164681,0.001780475694892425,-0.000158600138976713,0
263,0.010520000000000085,4.99972120164681,0.003753214669504526,0.00181779679838246,0
264,0.010559999999999903,4.99972120164681,0.004739584158527918,0.0028078248551574704,0
265,0.010599999999999943,5.000707572102282,0.005397163818512657,0.003469063681051426,0
266,0.010639999999999983,5.000049991798719,0.004739584158527918,0.002815143778281338,0
267,0.010680000000000023,5.000049991798719,0.004082004499051814,0.0021612244604679344,0
268,0.010720000000000063,4.99972120164681,0.004410794328726292,0.0024936752093905525,0
269,0.010760000000000103,5.000049991798719,0.001122896037706475,-0.0007905615916635228,0
270,0.01079999999999992,5.000049991798719,0.004410794328726292,0.0025009987531665664,0
271,0.01083999999999996,5.000378781950543,0.006712323140007484,0.004806190175224281,0
272,0.01088,4.99972120164681,0.004739584158527918,0.0028371143546039954,0
273,0.01092000000000004,4.999392411494816,0.0030956350107915753,0.0011968289109209667,0
274,0.01096000000000008,4.999392411494816,0.003424424840084442,0.0015292829805672497,0
275,0.010999999999999899,5.000049991798719,0.001780475694892425,-0.00011100139487039626,0
276,0.011039999999999939,4.99972120164681,0.001122896037706475,-0.0007649157598054021,0
277,0.011079999999999979,5.000378781950543,0.0021092655236763236,0.00022511953400236335,0
278,0.011120000000000019,5.000378781950543,0.0024380553525874815,0.0005575756794235897,0
279,0.011160000000000059,5.000049991798719,0.004410794328726292,0.0025339814738245684,0
280,0.011200000000000099,5.000378781950543,0.004410794328726292,0.0025376487869135647,0
281,0.011239999999999917,4.99972120164681,0.00506837398845672,0.003198896247629309,0
282,0.011279999999999957,5.000378781950543,0.005397163818512657,0.003531354359631143,0
283,0.011319999999999997,4.99972120164681,0.004739584158527918,0.002877443455611906,0
284,0.011360000000000037,5.000049991798719,0.0007941062093044515,-0.0010643652705726655,0
285,0.011400000000000077,5.001036362253937,0.001780475694892425,-7.432610182387051e-05,0
286,0.011439999999999895,5.000049991798719,-0.0008498429307955274,-0.0027009745911857714,0
287,0.011479999999999935,5.000049991798719,0.00013652655288240445,-0.001710934524978514,0
288,0.011519999999999975,5.000707572102282,0.0024380553525874815,0.0005942652964919691,0
289,0.011560000000000015,4.99972120164681,0.008356272294735026,0.006516153692668555,0
290,0.011600000000000055,5.000378781950543,0.006712323140007484,0.004875876417256001,0
291,0.011640000000000095,5.000707572102282,0.005397163818512657,0.0035643893933791594,0
292,0.011679999999999913,5.000378781950543,0.001122896037706475,-0.0007062056784942534,0
293,0.011719999999999953,4.99972120164681,0.003753214669504526,0.0019277860665578425,0
294,0.011759999999999993,4.999392411494816,0.004410794328726292,0.0025890392363561556,0
295,0.011800000000000033,4.999063621342738,0.00506837398845672,0.0032502927969815538,0
296,0.011840000000000073,5.000378781950543,0.004410794328726292,0.0025963874214551476,0
297,0.011880000000000113,5.000378781950543,0.004739584158527918,0.0029288519117551823,0
298,0.01191999999999993,5.000378781950543,0.0021092655236763236,0.00030220830667642383,0
299,0.01195999999999997,4.99972120164681,0.0027668451816259126,0.0009634633566480088,0
300,0.01200000000000001,5.000049991798719,0.001780475694892425,-1.9230382844886724e-05,0
301,0.01204000000000005,5.000049991798719,0.0007941062093044515,-0.0010019237730095449,0
302,0.01208000000000009,5.000378781950543,0.003753214669504526,0.001960861123755382,0
303,0.012119999999999909,4.99972120164681,0.004739584158527918,0.002950907383438675,0
304,0.012159999999999949,5.000049991798719,0.0027668451816259126,0.0009818455042398117,0
305,0.012199999999999989,5.000378781950543,0.001122896037706475,-0.0006584262219903775,0
306,0.012240000000000029,5.000378781950543,0.003424424840084442,0.0016467803110004893,0
307,0.012280000000000069,5.000378781950543,0.001780475694892425,6.5092022772548705e-06,0
308,0.012320000000000109,5.000378781950543,0.001780475694892425,1.0187537528815556e-05,0
309,0.012359999999999927,5.000378781950543,0.0014516858662357995,-0.0003149236641718985,0
310,0.012399999999999967,4.99972120164681,0.004082004499051814,0.0023190738802206156,0
311,0.012440000000000007,5.000378781950543,0.005725953648695714,0.0039667022189725145,0
312,0.012480000000000047,5.000378781950543,0.0007941062093044515,-0.0009614657608736823,0
313,0.012520000000000087,5.000707572102282,0.0027668451816259126,0.0010149529343301167,0
314,0.012559999999999905,4.99972120164681,0.0024380553525874815,0.0006898430844061642,0
315,0.012599999999999945,5.000707572102282,0.003424424840084442,0.0016798928001392462,0
316,0.012639999999999985,5.000707572102282,0.005397163818512657,0.0036563122488093695,0
317,0.012680000000000025,5.000049991798719,0.001780475694892425,4.3304830315606503e-05,0
318,0.012720000000000065,4.99972120164681,0.005725953648695714,0.003992463717003305,0
319,0.012760000000000105,5.000378781950543,0.003753214669504526,0.002023405891322478,0
320,0.012799999999999923,4.99972120164681,0.001780475694892425,5.4348283709304275e-05,0
321,0.012839999999999963,5.000049991798719,0.004082004499051814,0.0023595586612134185,0
322,0.012880000000000003,4.99972120164681,0.004739584158527918,0.003020820093231899,0
323,0.012920000000000043,4.99972120164681,0.0024380553525874815,0.0007229732518779471,0
324,0.012960000000000083,5.000049991798719,0.007369902801517392,0.005658502850279496,0
325,0.0129999999999999,5.000378781950543,0.004082004499051814,0.002374286875006378,0
326,0.01303999999999994,5.000707572102282,0.001780475694892425,7.64405685904977e-05,0
327,0.01307999999999998,5.000049991798719,0.0007941062093044515,-0.000906246255878086,0
328,0.01312000000000002,5.000378781950543,0.0030956350107915753,0.0013989653629237295,0
329,0.01316000000000006,5.000049991798719,0.0007941062093044515,-0.0008988804722393849,0
330,0.0132000000000001,5.000378781950543,0.0021092655236763236,0.00041996195027439666,0
331,0.013239999999999919,4.999392411494816,0.0027668451816259126,0.0010812248509869625,0
332,0.013279999999999959,5.000049991798719,0.006712323140007484,0.005030386179550313,0
333,0.013319999999999999,5.000049991798719,0.003753214669504526,0.002074961199440249,0
334,0.013360000000000039,4.999392411494816,0.004410794328726292,0.0027362244620528853,0
335,0.013400000000000079,4.999392411494816,0.0007941062093044515,-0.0008767799481986616,0
336,0.013439999999999896,4.99972120164681,0.001780475694892425,0.0001132733451150367,0
337,0.013479999999999936,5.000049991798719,0.001780475694892425,0.00011695724416678314,0
338,0.013519999999999976,5.000378781950543,0.0027668451816259126,0.0011070107140431912,0
339,0.013560000000000016,5.000049991798719,0.003753214669504526,0.002097064261915614,0
340,0.013600000000000056,5.000049991798719,0.001780475694892425,0.00012800941690248194,0
341,0.013640000000000096,5.000378781950543,0.0021092655236763236,0.0004604834376393265,0
342,0.013679999999999914,5.000378781950543,0.00013652655288240445,-0.0015085712861042989,0
343,0.013719999999999954,5.000049991798719,0.0007941062093044515,-0.0008473073347967,0
344,0.013759999999999994,5.000378781950543,-0.00019226327513760522,-0.0018299924837854899,0
345,0.013800000000000034,5.000049991798719,-0.0008498429307955274,-0.0024838877706954412,0
346,0.013840000000000074,5.000049991798719,0.004739584158527918,0.003109223713392198,0
347,0.013879999999999892,5.000378781950543,0.005725953648695714,0.00409927761705647,0
348,0.013919999999999932,5.000049991798719,0.0030956350107915753,0.001472643404091655,0
349,0.013959999999999972,4.99972120164681,0.003424424840084442,0.0018051176624717734,0
350,0.014000000000000012,5.000049991798719,0.005397163818512657,0.0037815410668347697,0
351,0.014040000000000052,5.000049991798719,0.0027668451816259126,0.0011549068454244486,0
352,0.014080000000000092,5.000378781950543,0.0014516858662357995,-0.00015656807225898883,0
353,0.01411999999999991,5.000049991798719,-0.0008498429307955274,-0.002454412496670268,0
354,0.01415999999999995,4.99972120164681,0.0007941062093044515,-0.0008067790163592539,0
355,0.01419999999999999,5.000707572102282,0.0014516858662357995,-0.00014551505895376717,0
356,0.01424000000000003,4.99972120164681,0.001122896037706475,-0.00047062063407924803,0
357,0.01428000000000007,5.000707572102282,0.003424424840084442,0.0018345923672933473,0
358,0.01432000000000011,4.99972120164681,0.0014516858662357995,-0.00013446246931431694,0
359,0.014359999999999928,5.000049991798719,0.003753214669504526,0.002170750402091764,0
360,0.014399999999999968,4.99972120164681,0.003424424840084442,0.0018456445643499166,0
361,0.014440000000000008,4.99972120164681,0.0007941062093044515,-0.0007809901585719893,0
362,0.014480000000000048,5.000049991798719,0.0004653163810297567,-0.0011060961701753308,0
363,0.014520000000000088,5.000707572102282,-0.0005210531030302584,-0.002088781936122845,0
364,0.014559999999999906,5.000049991798719,-0.001178632758433426,-0.002742677979350045,0
365,0.014599999999999946,5.000378781950543,0.0021092655236763236,0.0005489038016158987,0
366,0.014639999999999986,5.000049991798719,0.003424424840084442,0.001867746496171638,0
367,0.014680000000000026,4.99972120164681,-0.0015074225859438989,-0.003060417679812025,0
368,0.014720000000000066,5.000378781950543,0.00013652655288240445,-0.0014127854264439537,0
369,0.014760000000000106,4.99972120164681,0.0024380553525874815,0.0008924263448944444,0
370,0.014799999999999924,4.99972120164681,0.0014516858662357995,-9.026032014349146e-05,0
371,0.014839999999999964,5.000378781950543,-0.00019226327513760522,-0.0017305267979394533,0
372,0.014880000000000004,4.999392411494816,-0.00019226327513760522,-0.0017268442995206407,0
373,0.014920000000000044,5.000049991798719,0.0027668451816259126,0.0012359464830751306,0
374,0.014960000000000084,5.000049991798719,0.00013652655288240445,-0.0013906899998562163,0
375,0.014999999999999902,5.000707572102282,0.0004653163810297567,-0.0010582182133559545,0
376,0.015039999999999942,5.000378781950543,-0.00019226327513760522,-0.001712116106074428,0
377,0.015079999999999982,5.000378781950543,0.0024380553525874815,0.0009218840827451282,0
378,0.015120000000000022,5.000049991798719,0.004082004499051814,0.002569514580493491,0
379,0.015160000000000062,4.99972120164681,0.001122896037706475,-0.0003859127468399114,0
380,0.015200000000000102,5.000378781950543,-0.0008498429307955274,-0.002354970806069374,0
381,0.01523999999999992,4.99972120164681,0.001122896037706475,-0.00037855116050716905,0
382,0.01527999999999996,5.000378781950543,0.004739584158527918,0.003241817397683557,0
383,0.01532,4.99972120164681,0.005397163818512657,0.0039030772478624333,0
384,0.01536000000000004,5.000049991798719,0.0027668451816259126,0.00127643854650479,0
385,0.01540000000000008,4.99972120164681,0.0014516858662357995,-3.504109551680373e-05,0
386,0.015439999999999898,4.99972120164681,-0.0015074225859438989,-0.0029904701439897696,0
387,0.015479999999999938,5.000049991798719,0.00013652655288240445,-0.0013428418786254014,0
388,0.015519999999999978,5.000707572102282,-0.00019226327513760522,-0.0016679528647885618,0
389,0.015560000000000018,5.000049991798719,0.001780475694892425,0.0003084646548988676,0
390,0.015600000000000058,4.99972120164681,0.003424424840084442,0.0019560920500249217,0
391,0.0156400000000001,5.000378781950543,0.003424424840084442,0.001959769992705993,0
392,0.015679999999999916,5.000378781950543,0.0014516858662357995,-9.291353249849568e-06,0
393,0.015719999999999956,5.000378781950543,-0.0015074225859438989,-0.0029647224998660304,0
394,0.015759999999999996,4.999392411494816,0.0021092655236763236,0.0006556425854417107,0
395,0.015800000000000036,5.000378781950543,0.0007941062093044515,-0.0006558400906710555,0
396,0.015840000000000076,5.000378781950543,-0.0015074225859438989,-0.0029536925926468543,0
397,0.015879999999999894,4.999392411494816,0.001780475694892425,0.00033788162891160525,0
398,0.015919999999999934,5.000378781950543,0.0030956350107915753,0.001656716525412902,0
399,0.015959999999999974,5.000378781950543,0.001780475694892425,0.00034523242242060257,0
400,0.016000000000000014,5.000049991798719,0.0014516858662357995,2.0117431394491036e-05,0
401,0.016040000000000054,5.001036362253937,0.001122896037706475,-0.00030499794236743614,0
402,0.016080000000000094,5.000378781950543,0.0021092655236763236,0.0006850456079141695,0
403,0.016119999999999912,5.000049991798719,0.0014516858662357995,3.113961673149263e-05,0
404,0.016159999999999952,5.001036362253937,0.0027668451816259126,0.0013499721927215146,0
405,0.016199999999999992,5.000049991798719,0.004082004499051814,0.0026688043574796035,0
406,0.016240000000000032,4.999392411494816,0.006054743479005864,0.004645215763882572,0
407,0.016280000000000072,5.000378781950543,0.0004653163810297567,-0.0009405393361492045,0
408,0.016320000000000112,5.000378781950543,-0.00019226327513760522,-0.0015944474305039315,0
409,0.01635999999999993,5.000378781950543,-0.0018362124133269458,-0.0032347254506452,0
410,0.01639999999999997,4.999392411494816,0.00013652655288240445,-0.0012583158177909854,0
411,0.01644000000000001,5.000378781950543,0.0004653163810297567,-0.0009258557820463909,0
412,0.01648000000000005,5.000378781950543,0.0030956350107915753,0.001708132588614851,0
413,0.01652000000000009,4.99972120164681,0.0024380553525874815,0.0010542221969563842,0
414,0.016559999999999908,5.000049991798719,0.0021092655236763236,0.0007291011525752808,0
415,0.016599999999999948,5.000378781950543,0.001122896037706475,-0.0002536000385476526,0
416,0.016639999999999988,5.000049991798719,0.001122896037706475,-0.00024993224105724515,0
417,0.016680000000000028,5.000049991798719,0.00013652655288240445,-0.0012326344334265857,0
418,0.016720000000000068,5.000707572102282,0.0014516858662357995,8.619165966088224e-05,0
419,0.016760000000000108,5.000378781950543,0.00013652655288240445,-0.0012253013943698825,0
420,0.016799999999999926,5.000378781950543,0.0004653163810297567,-0.0008928458350079473,0
421,0.016839999999999966,5.000378781950543,0.005397163818512657,0.004042666797879069,0
422,0.016880000000000006,5.001036362253937,0.0030956350107915753,0.001744802642043407,0
423,0.016920000000000046,4.99972120164681,-0.0015074225859438989,-0.002854590854039415,0
424,0.016960000000000086,5.000049991798719,-0.0005210531030302584,-0.0018645578294258019,0
425,0.016999999999999904,5.000707572102282,-0.002165002240582567,-0.0035048439919565626,0
426,0.017039999999999944,5.000378781950543,-0.00019226327513760522,-0.0015284426259000758,0
427,0.017079999999999984,5.000049991798719,-0.002165002240582567,-0.0034975197728809642,0
428,0.017120000000000024,5.000378781950543,-0.0008498429307955274,-0.0021786992345205858,0
429,0.017160000000000064,5.000049991798719,0.0027668451816259126,0.0014416495088343411,0
430,0.017200000000000104,5.000049991798719,-0.0008498429307955274,-0.002171378578048426,0
431,0.017239999999999922,5.000378781950543,0.001122896037706475,-0.00019498019716340017,0
432,0.017279999999999962,4.99972120164681,-0.00019226327513760522,-0.0015064807185467904,0
433,0.017320000000000002,5.000378781950543,-0.002165002240582567,-0.0034755615212259494,0
434,0.017360000000000042,5.000049991798719,0.0004653163810297567,-0.0008415853733211298,0
435,0.017400000000000082,4.999392411494816,0.001780475694892425,0.0004772308225764494,0
436,0.0174399999999999,5.001036362253937,0.00013652655288240445,-0.0011630620894463864,0
437,0.01747999999999994,5.000378781950543,-0.0005210531030302584,-0.0018169861752156036,0
438,0.01751999999999998,4.999063621342738,-0.003808951374948702,-0.005101229544636216,0
439,0.01756000000000002,4.99972120164681,-0.0005210531030302584,-0.0018096770456733108,0
440,0.01760000000000006,4.99972120164681,-0.005124110680146385,-0.00640908107901196,0
441,0.0176400000000001,5.001693942556992,-0.001178632758433426,-0.0024599503046080213,0
442,0.017679999999999918,4.997748460733576,0.0004653163810297567,-0.0008123490113657276,0
443,0.017719999999999958,4.999063621342738,-0.0015074225859438989,-0.0027814365313034097,0
444,0.017759999999999998,4.99972120164681,0.00506837398845672,0.003798010775552865,0
445,0.017800000000000038,5.000378781950543,-0.0024937920677107622,-0.0037605052705823473,0
446,0.017840000000000078,5.002351522859708,-0.0008498429307955274,-0.0021129068539072413,0
447,0.017879999999999896,4.999392411494816,0.0024380553525874815,0.0011786399711083335,0
448,0.017919999999999936,4.999063621342738,-0.002165002240582567,-0.0034207698264172746,0
449,0.017959999999999976,5.001365152405508,0.0007941062093044515,-0.0004580143347406958,0
450,0.018000000000000016,4.99972120164681,0.0007941062093044515,-0.0004543680546786737,0
451,0.018040000000000056,5.000049991798719,0.001122896037706475,-0.00012193271582075201,0
452,0.018080000000000096,4.99972120164681,-0.0015074225859438989,-0.002748606606505855,0
453,0.018119999999999914,5.000049991798719,0.0007941062093044515,-0.0004434338636732918,0
454,0.018159999999999954,5.000378781950543,-0.0015074225859438989,-0.0027413195046148294,0
455,0.018199999999999994,5.000378781950543,-0.0008498429307955274,-0.0020800974963393207,0
456,0.018240000000000034,5.000049991798719,0.0004653163810297567,-0.0007612966404747688,0
457,0.018280000000000074,4.999392411494816,0.0014516858662357995,0.00022871357176854968,0
458,0.018320000000000114,4.99972120164681,0.0007941062093044515,-0.0004252261830475682,0
459,0.018359999999999932,5.000378781950543,0.001122896037706475,-9.279728537835131e-05,0
460,0.018399999999999972,4.999392411494816,-0.002165002240582567,-0.003377057335180161,0
461,0.018440000000000012,5.000049991798719,0.0004653163810297567,-0.0007431013337984378,0
462,0.018480000000000052,4.999392411494816,0.0014516858662357995,0.0002469046745153723,0
463,0.018520000000000092,4.99972120164681,-0.0018362124133269458,-0.0030373579465509852,0
464,0.01855999999999991,4.999392411494816,-0.00019226327513760522,-0.0013897740224323328,0
465,0.01859999999999995,4.99972120164681,-0.0008498429307955274,-0.0020437197726896426,0
466,0.01863999999999999,5.000049991798719,0.0021092655236763236,0.0009190216986865506,0
467,0.01868000000000003,5.000378781950543,-0.005124110680146385,-0.006310722384701583,0
468,0.01872000000000007,5.000049991798719,0.0007941062093044515,-0.000388874279265402,0
469,0.01876000000000011,4.999392411494816,-0.0031513717215847087,-0.004330721906603818,0
470,0.018799999999999928,5.000378781950543,-0.0015074225859438989,-0.002683143387838192,0
471,0.018839999999999968,5.000049991798719,-0.001178632758433426,-0.002350725105626077,0
472,0.018880000000000008,5.000378781950543,0.0004653163810297567,-0.0007031484478876119,0
473,0.018920000000000048,5.000049991798719,0.0021092655236763236,0.0009444272685987572,0
474,0.018960000000000088,4.99972120164681,-0.00019226327513760522,-0.0013534759088259058,0
475,0.018999999999999906,5.000378781950543,-0.0047953208540382625,-0.005952908826808834,0
476,0.019039999999999946,4.99972120164681,-0.0015074225859438989,-0.002661386866295218,0
477,0.019079999999999986,5.000049991798719,-0.0018362124133269458,-0.0029865539777903533,0
478,0.019120000000000026,5.000049991798719,-0.0008498429307955274,-0.001996562763941178,0
479,0.019160000000000066,5.001036362253937,-0.002165002240582567,-0.0033081013350253676,0
480,0.019200000000000106,5.000378781950543,0.00013652655288240445,-0.0010029528035231606,0
481,0.019239999999999924,4.99972120164681,-0.0005210531030302584,-0.0016569137301208458,0
482,0.019279999999999964,5.000378781950543,-0.003808951374948702,-0.004941194289509164,0
483,0.019320000000000004,5.000049991798719,-0.001178632758433426,-0.002307258985317165,0
484,0.019360000000000044,5.000049991798719,0.001122896037706475,-2.1145344284219814e-06,0
485,0.019400000000000084,5.000707572102282,-0.0008498429307955274,-0.0019712388891898894,0
486,0.019439999999999902,5.000049991798719,0.001122896037706475,5.113643957962858e-06,0
487,0.019479999999999942,5.000049991798719,0.0007941062093044515,-0.0003200636769852051,0
488,0.019519999999999982,5.000049991798719,-0.00019226327513760522,-0.0013028217192536536,0
489,0.019560000000000022,5.000378781950543,0.00013652655288240445,-0.0009704215224494731,0
490,0.019600000000000062,5.000049991798719,-0.0024937920677107622,-0.003597130855758025,0
491,0.019640000000000102,5.000049991798719,0.00013652655288240445,-0.0009632040374958573,0
492,0.01967999999999992,4.999392411494816,-0.0028225818947114484,-0.003918705385158297,0
493,0.01971999999999996,5.000707572102282,-0.0028225818947114484,-0.0039150993910923824,0
494,0.01976,4.99972120164681,-0.004466531027802631,-0.005555443644116967,0
495,0.01980000000000004,5.000378781950543,-0.0018362124133269458,-0.0029215212717137377,0
496,0.01984000000000008,4.99972120164681,-0.0018362124133269458,-0.002917918644070879,0
497,0.019879999999999898,4.99972120164681,0.001122896037706475,4.479129616916664e-05,0
498,0.019919999999999938,5.000049991798719,-0.0018362124133269458,-0.0029107168122513077,0
499,0.019959999999999978,5.000049991798719,-0.00019226327513760522,-0.00126316848620605,0
500,0.020000000000000018,5.000378781950543,-0.0015074225859438989,-0.002574729772082683,0
501,0.020040000000000058,5.000049991798719,-0.0005210531030302584,-0.0015847634353407577,0
502,0.020080000000000098,5.000378781950543,0.00013652655288240445,-0.0009235881048821842,0
503,0.020119999999999916,4.99972120164681,-0.0005210531030302584,-0.0015775732737181901,0
504,0.020159999999999956,5.000049991798719,-0.00348016154833046,-0.004533088427603745,0
505,0.020199999999999996,5.000049991798719,-0.0024937920677107622,-0.0035431268594300477,0
506,0.020240000000000036,4.999392411494816,-0.0024937920677107622,-0.003539535983941185,0
507,0.020280000000000076,5.000378781950543,-0.0028225818947114484,-0.003864736155728504,0
508,0.020319999999999894,5.000049991798719,-0.0018362124133269458,-0.002874778247622344,0
509,0.020359999999999934,4.99972120164681,-0.0008498429307955274,-0.0018848215750830372,0
510,0.020399999999999974,4.99972120164681,0.001780475694892425,0.0007490829956711222,0
511,0.020440000000000014,5.000378781950543,-0.002165002240582567,-0.003192810247913097,0
512,0.020480000000000054,4.999392411494816,-0.001178632758433426,-0.0022028573352882276,0
513,0.020520000000000094,5.000049991798719,-0.00019226327513760522,-0.0012129056911771565,0
514,0.02055999999999991,5.000378781950543,-0.0008498429307955274,-0.0018669044639315776,0
515,0.02059999999999995,5.000049991798719,-0.002165002240582567,-0.0031784841769839645,0
516,0.02063999999999999,5.000049991798719,-0.0005210531030302584,-0.0015309567371287755,0
517,0.02068000000000003,4.99972120164681,-0.0005210531030302584,-0.0015273797375263993,0
518,0.02072000000000007,5.000049991798719,0.001122896037706475,0.00012014509183766041,0
519,0.02076000000000011,5.000049991798719,-0.00019226327513760522,-0.0011914398516344902,0
520,0.02079999999999993,5.000378781950543,-0.0024937920677107622,-0.003489395602377266,0
521,0.02083999999999997,5.000378781950543,-0.003808951374948702,-0.00480098320361832,0
522,0.02088000000000001,5.000049991798719,-0.0028225818947114484,-0.003811043361515412,0
523,0.02092000000000005,5.000049991798719,-0.0008498429307955274,-0.0018347353881685872,0
524,0.02096000000000009,5.000378781950543,-0.00019226327513760522,-0.0011735880838238176,0
525,0.020999999999999908,5.000378781950543,0.003753214669504526,0.002775456140446015,0
526,0.021039999999999948,4.99972120164681,0.001780475694892425,0.0008062820680816139,0
527,0.021079999999999988,5.000049991798719,-0.0024937920677107622,-0.0034644221779805188,0
528,0.021120000000000028,4.99972120164681,-0.002165002240582567,-0.0031320702283503302,0
529,0.021160000000000068,4.99972120164681,-0.003808951374948702,-0.004772458642591694,0
530,0.021200000000000108,5.000378781950543,-0.0024937920677107622,-0.0034537400259501156,0
531,0.021239999999999926,5.000378781950543,-0.002165002240582567,-0.0031213923084890695,0
532,0.021279999999999966,5.000049991798719,0.0004653163810297567,-0.00048751722397008643,0
533,0.021320000000000006,5.000049991798719,0.0021092655236763236,0.0011599869457958138,0
534,0.021360000000000046,5.000707572102282,0.001122896037706475,0.00017717104279110275,0
535,0.021400000000000086,5.000049991798719,-0.0005210531030302584,-0.0014632259675072866,0
536,0.021439999999999904,5.000378781950543,-0.0005210531030302584,-0.0014596752979740516,0
537,0.021479999999999944,5.000049991798719,-0.00019226327513760522,-0.0011273362698372969,0
538,0.021519999999999984,4.999392411494816,0.0007941062093044515,-0.000137419062830002,0
539,0.021560000000000024,5.000378781950543,-0.0005210531030302584,-0.0014490321386737637,0
540,0.021600000000000064,5.000049991798719,0.0004653163810297567,-0.00045911791259821227,0
541,0.021640000000000104,4.99972120164681,-0.0028225818947114484,-0.0037434729492060895,0
542,0.02167999999999992,4.99972120164681,0.00013652655288240445,-0.0007808227737735978,0
543,0.02171999999999996,5.000378781950543,-0.0005210531030302584,-0.0014348622215604448,0
544,0.02176,5.000049991798719,-0.0008498429307955274,-0.0017601133693365286,0
545,0.02180000000000004,5.000049991798719,0.00013652655288240445,-0.0007702067422355032,0
546,0.02184000000000008,5.000378781950543,0.001122896037706475,0.00021969834101046352,0
547,0.0218799999999999,5.000049991798719,0.00506837398845672,0.00416871033674066,0
548,0.02191999999999994,5.000049991798719,-0.0008498429307955274,-0.0017459740994199562,0
549,0.02195999999999998,4.99972120164681,-0.001178632758433426,-0.0020712330143065573,0
550,0.02200000000000002,5.000049991798719,0.0014516858662357995,0.0005626149443160181,0
551,0.02204000000000006,5.000378781950543,0.001780475694892425,0.0008949325196648322,0
552,0.0220800000000001,5.000378781950543,0.0014516858662357995,0.0005696688419704209,0
553,0.022119999999999918,4.99972120164681,0.0014516858662357995,0.0005731933887282567,0
554,0.022159999999999958,5.000049991798719,0.003753214669504526,0.0028782451260704585,0
555,0.022199999999999998,5.000049991798719,0.0014516858662357995,0.0005802376357053058,0
556,0.022240000000000038,5.000378781950543,-0.0008498429307955274,-0.0017177714780834603,0
557,0.022280000000000078,5.000378781950543,-0.002165002240582567,-0.0030294127427856034,0
558,0.022319999999999895,4.99972120164681,-0.001178632758433426,-0.0020395268622114176,0
559,0.022359999999999935,4.99972120164681,-0.00019226327513760522,-0.0010496426356581103,0
560,0.022399999999999975,4.999392411494816,0.0027668451816259126,0.0019129789006821123,0
561,0.022440000000000015,5.000049991798719,-0.00019226327513760522,-0.0010426181487042034,0
562,0.022480000000000055,4.99972120164681,0.001122896037706475,0.0002760508907933431,0
563,0.022520000000000095,5.000049991798719,-0.00019226327513760522,-0.001035600384650717,0
564,0.022559999999999913,5.000378781950543,-0.002165002240582567,-0.0030048330104842976,0
565,0.022599999999999953,5.000378781950543,-0.00019226327513760522,-0.0010285894117572584,0
566,0.022639999999999993,5.000049991798719,-0.0018362124133269458,-0.0026690356315399373,0
567,0.022680000000000033,5.000378781950543,0.001780475694892425,0.0009511536716591096,0
568,0.022720000000000073,5.000707572102282,0.0004653163810297567,-0.0003605061792078634,0
569,0.022760000000000113,5.000049991798719,0.0014516858662357995,0.0006293610284474566,0
570,0.02279999999999993,5.000049991798719,0.0007941062093044515,-2.472265514888005e-05,0
571,0.02283999999999997,5.000378781950543,0.0027668451816259126,0.0019515105328200616,0
572,0.02288000000000001,5.000378781950543,0.001780475694892425,0.0009686334954678646,0
573,0.02292000000000005,5.000049991798719,0.001780475694892425,0.0009721241699989207,0
574,0.02296000000000009,4.999392411494816,-0.003808951374948702,-0.004613814008750798,0
575,0.02299999999999991,5.000378781950543,0.001122896037706475,0.0003215205029613562,0
576,0.02303999999999995,5.000378781950543,-0.0005210531030302584,-0.0013189433393529346,0
577,0.02307999999999999,5.000378781950543,-0.001178632758433426,-0.001973039505573642,0
578,0.02312000000000003,5.000049991798719,0.00013652655288240445,-0.0006543985229260986,0
579,0.02316000000000007,5.000049991798719,0.0004653163810297567,-0.0003221288499138513,0
580,0.02320000000000011,5.000378781950543,0.0004653163810297567,-0.0003186508401371435,0
581,0.023239999999999927,5.000049991798719,-0.0024937920677107622,-0.003274283122815794,0
582,0.023279999999999967,5.000378781950543,-0.002165002240582567,-0.002942018981972496,0
583,0.023320000000000007,5.000049991798719,0.0014516858662357995,0.0006781415775770243,0
584,0.023360000000000047,5.000378781950543,0.0007941062093044515,2.40325037504591e-05,0
585,0.023400000000000087,5.000707572102282,0.0014516858662357995,0.0006850808655125482,0
586,0.023439999999999905,5.000707572102282,0.0007941062093044515,3.096802648500465e-05,0
587,0.023479999999999945,5.000378781950543,0.0004653163810297567,-0.0002943568794709356,0
588,0.023519999999999985,4.99972120164681,0.0014516858662357995,0.0006954756238054948,0
589,0.023560000000000025,5.000378781950543,0.0014516858662357995,0.0006989367289590126,0
590,0.023600000000000065,5.000049991798719,0.003753214669504526,0.0030039247157907017,0
591,0.023640000000000105,5.000378781950543,0.0030956350107915753,0.002349802310371312,0
592,0.023679999999999923,5.000378781950543,0.0004653163810297567,-0.000277061005050358,0
593,0.023719999999999963,5.000707572102282,-0.0005210531030302584,-0.0012599771224128045,0
594,0.023760000000000003,5.000707572102282,-0.00019226327513760522,-0.0009277358841594649,0
595,0.023800000000000043,5.000049991798719,0.001780475694892425,0.0010484525311949418,0
596,0.023840000000000083,4.999392411494816,0.001780475694892425,0.0010519000027784712,0
597,0.0238799999999999,4.99972120164681,-0.00019226327513760522,-0.0009173934781185158,0
598,0.02391999999999994,5.000378781950543,-0.0005210531030302584,-0.0012427398080433337,0
599,0.02395999999999998,4.99972120164681,0.0007941062093044515,7.586100237422211e-05,0
600,0.02400000000000002,5.000378781950543,0.001780475694892425,0.0010656699774352243,0
601,0.02404000000000006,5.000378781950543,-0.0015074225859438989,-0.0022187908312677473,0
602,0.0240800000000001,5.000049991798719,-0.0008498429307955274,-0.0015577757300605866,0
603,0.02411999999999992,5.000378781950543,0.0014516858662357995,0.000747186478215084,0
604,0.02415999999999996,4.99972120164681,0.001780475694892425,0.0010794076745567357,0
605,0.0242,5.000049991798719,0.0007941062093044515,9.646750434462188e-05,0
606,0.02424000000000004,5.000049991798719,0.0030956350107915753,0.002401423560143627,0
607,0.02428000000000008,5.000378781950543,0.001780475694892425,0.0010896894287326358,0
608,0.024319999999999897,5.000707572102282,0.0007941062093044515,0.00010674304904442137,0
609,0.024359999999999937,5.000707572102282,0.0014516858662357995,0.000767743724517546,0
610,0.024399999999999977,4.999392411494816,0.001122896037706475,0.0004423728183975495,0
611,0.024440000000000017,5.000049991798719,-0.0018362124133269458,-0.0025133188151383267,0
612,0.024480000000000057,5.000378781950543,0.0027668451816259126,0.002093153483616102,0
613,0.024520000000000097,5.000378781950543,0.0024380553525874815,0.0017677762358942568,0
614,0.024559999999999915,4.99972120164681,0.001122896037706475,0.0004560273710510149,0
615,0.024599999999999955,5.000707572102282,0.0021092655236763236,0.0014458051669811677,0
616,0.024639999999999995,5.000049991798719,0.001122896037706475,0.00046284184209074487,0
617,0.024680000000000035,5.000707572102282,-0.001178632758433426,-0.0018352829506588014,0
618,0.024720000000000075,5.000049991798719,0.0007941062093044515,0.0001408578539674139,0
619,0.024759999999999893,5.000049991798719,0.001780475694892425,0.001130627001124039,0
620,0.024799999999999933,5.000378781950543,0.0014516858662357995,0.000805234649893994,0
621,0.024839999999999973,4.99972120164681,0.001780475694892425,0.0011374197630080454,0
622,0.024880000000000013,5.000378781950543,0.0004653163810297567,-0.00017434646819810358,0
623,0.024920000000000053,5.000378781950543,0.0004653163810297567,-0.0001709555961789043,0
624,0.024960000000000093,4.99972120164681,0.001122896037706475,0.0004900127130386476,0
625,0.02499999999999991,5.000378781950543,0.0024380553525874815,0.0018085584521364607,0
626,0.02503999999999995,5.000378781950543,0.004410794328726292,0.003784681615317794,0
627,0.02507999999999999,4.99972120164681,0.004410794328726292,0.0037880635563312046,0
628,0.02512000000000003,5.000378781950543,0.004082004499051814,0.00346265341278164,0
629,0.02516000000000007,5.000378781950543,0.003424424840084442,0.002808451176186772,0
630,0.02520000000000011,5.000707572102282,0.0027668451816259126,0.0021542466674799253,0
631,0.02523999999999993,5.000049991798719,0.001780475694892425,0.0011712500490044149,0
632,0.02527999999999997,5.000378781950543,-0.0005210531030302584,-0.001126908171031336,0
633,0.02532000000000001,5.000049991798719,0.0007941062093044515,0.0001916194199374834,0
634,0.02536000000000005,5.000049991798719,0.001780475694892425,0.001181354876020561,0
635,0.02540000000000009,5.001036362253937,0.003424424840084442,0.0028286676746780985,0
636,0.025439999999999907,5.000049991798719,0.0004653163810297567,-0.00012707945683559832,0
637,0.025479999999999947,5.000049991798719,0.0021092655236763236,0.001520228678528109,0
638,0.025519999999999987,4.99972120164681,0.0024380553525874815,0.0018523751564289174,0
639,0.025560000000000027,4.99972120164681,0.0007941062093044515,0.00021178030950008448,0
640,0.025600000000000067,5.000049991798719,0.001780475694892425,0.0012015017298945359,0
641,0.025640000000000107,5.000049991798719,0.0021092655236763236,0.0015336411230206625,0
642,0.025679999999999925,5.000049991798719,0.0021092655236763236,0.001536988307977853,0
643,0.025719999999999965,4.998734831190575,0.0027668451816259126,0.0021979127625745758,0
644,0.025760000000000005,5.001036362253937,0.001122896037706475,0.0005573060180629898,0
645,0.025800000000000045,5.000049991798719,0.004410794328726292,0.003848544302317955,0
646,0.025840000000000085,4.998734831190575,0.00013652655288240445,-0.0004223858954010652,0
647,0.025879999999999903,5.000378781950543,0.00506837398845672,0.004512796694246091,0
648,0.025919999999999943,5.000378781950543,0.003424424840084442,0.0028721802669487793,0
649,0.025959999999999983,4.999392411494816,0.007369902801517392,0.0068209885075088544,0
650,0.026000000000000023,5.002022732708393,0.0014516858662357995,0.0009060994004525035,0
651,0.026040000000000063,5.000707572102282,-0.0028225818947114484,-0.003364842992129505,0
652,0.026080000000000103,4.999063621342738,0.0014516858662357995,0.0009127476683608406,0
653,0.02611999999999992,5.002680313010939,0.001122896037706475,0.0005872782615863448,0
654,0.02615999999999996,4.999063621342738,0.001780475694892425,0.0012481758537687367,0
655,0.0262,5.001693942556992,0.0030956350107915753,0.002566650608931869,0
656,0.02624000000000004,4.999063621342738,0.0027668451816259126,0.002241173714319719,0
657,0.02628000000000008,4.99972120164681,0.0024380553525874815,0.0019156943061423989,0
658,0.0263199999999999,4.999392411494816,0.0004653163810297567,-5.3736767232443215e-05,0
659,0.02635999999999994,5.000049991798719,0.003753214669504526,0.003237466887757277,0
660,0.02639999999999998,5.001036362253937,0.0024380553525874815,0.0019256103966937138,0
661,0.02644000000000002,5.000049991798719,0.0024380553525874815,0.0019289106728883525,0
662,0.02648000000000006,5.000049991798719,0.005397163818512657,0.004891316856348159,0
663,0.0265200000000001,5.000378781950543,0.0021092655236763236,0.0016067137113815173,0
664,0.026559999999999917,5.000049991798719,0.004410794328726292,0.003911535089627537,0
665,0.026599999999999957,5.000049991798719,0.003753214669504526,0.003257245417915775,0
666,0.026639999999999997,5.000049991798719,-0.0005210531030302584,-0.0010137349618111683,0
667,0.026680000000000037,5.000049991798719,0.0024380553525874815,0.0019486582828924493,0
668,0.026720000000000077,5.000049991798719,0.004082004499051814,0.003595889605697254,0
669,0.026759999999999895,4.99972120164681,0.006054743479005864,0.005571908140219295,0
670,0.026799999999999935,4.99972120164681,0.006712323140007484,0.006232764724985739,0
671,0.026839999999999975,4.99972120164681,0.005725953648695714,0.00524966951760136,0
672,0.026880000000000015,5.000707572102282,0.008356272294735026,0.0078832597986928,0
673,0.026920000000000055,5.000378781950543,-0.001178632758433426,-0.0016483762773401398,0
674,0.026960000000000095,5.000378781950543,0.0007941062093044515,0.0003276290005717492,0
675,0.026999999999999913,5.000378781950543,-0.00019226327513760522,-0.0006554768497061489,0
676,0.027039999999999953,5.000049991798719,0.0007941062093044515,0.0003341535838383853,0
677,0.027079999999999993,5.000378781950543,0.0021092655236763236,0.0016525711531957883,0
678,0.027120000000000033,4.99972120164681,0.00506837398845672,0.004614935169786084,0
679,0.027160000000000073,5.000378781950543,0.003753214669504526,0.003303028690406082,0
680,0.027200000000000113,5.000378781950543,0.005397163818512657,0.004950227957683246,0
681,0.02723999999999993,4.99972120164681,0.00013652655288240445,-0.0003071619200499247,0
682,0.02727999999999997,4.99972120164681,0.0007941062093044515,0.0003536623848251215,0
683,0.02732000000000001,5.000049991798719,0.0030956350107915753,0.002658433086245743,0
684,0.02736000000000005,5.000707572102282,0.0024380553525874815,0.0020040925703769573,0
685,0.02740000000000009,5.000378781950543,0.004082004499051814,0.0036512780924964584,0
686,0.02743999999999991,5.000378781950543,0.0076986926324629085,0.007271199825797415,0
687,0.02747999999999995,5.000049991798719,0.0027668451816259126,0.002342583189996623,0
688,0.02751999999999999,5.000049991798719,0.003753214669504526,0.003332180698966237,0
689,0.02756000000000003,5.000049991798719,0.001780475694892425,0.0013626669424052613,0
690,0.02760000000000007,5.000378781950543,0.0027668451816259126,0.0023522588350521987,0
691,0.02764000000000011,4.99972120164681,0.0014516858662357995,0.001040319104336975,0
692,0.027679999999999927,5.000049991798719,0.0021092655236763236,0.0017011155161098732,0
693,0.027719999999999967,5.000049991798719,0.0007941062093044515,0.0003891701166208754,0
694,0.027760000000000007,5.000378781950543,0.004410794328726292,0.004009069302366094,0
695,0.027800000000000047,5.000049991798719,0.005397163818512657,0.004998647000803377,0
696,0.027840000000000087,5.000378781950543,0.003753214669504526,0.0033579031936577766,0
697,0.027879999999999905,4.999392411494816,0.003424424840084442,0.003032315830192967,0
698,0.027919999999999945,5.000049991798719,0.003753214669504526,0.0033643052405392874,0
699,0.027959999999999985,5.000378781950543,0.0030956350107915753,0.0027099222685988676,0
700,0.028000000000000025,5.000049991798719,0.0021092655236763236,0.001726746564974911,0
701,0.028040000000000065,5.000707572102282,0.0021092655236763236,0.001729937436054603,0
702,0.028080000000000105,5.000049991798719,0.00506837398845672,0.004692233850369917,0
703,0.028119999999999923,5.000378781950543,0.004082004499051814,0.003709049379819208,0
704,0.028159999999999963,5.000378781950543,0.004739584158527918,0.004369811118330078,0
705,0.028200000000000003,5.000049991798719,0.0021092655236763236,0.0017426716135523926,0
706,0.028240000000000043,5.000378781950543,0.0024380553525874815,0.002074637614432482,0
707,0.028280000000000083,5.000049991798719,0.0004653163810297567,0.00010507184759193542,0
708,0.0283199999999999,5.000049991798719,0.001780475694892425,0.0014234013897706126,0
709,0.02835999999999994,5.000707572102282,0.0030956350107915753,0.002741727948432588,0
710,0.02839999999999998,4.99972120164681,0.004082004499051814,0.003731261684747873,0
711,0.02844000000000002,5.000378781950543,0.005397163818512657,0.0050495822483988435,0
712,0.02848000000000006,4.99972120164681,0.004082004499051814,0.003737581160103555,0
713,0.0285200000000001,5.000707572102282,0.004082004499051814,0.0037407363690823946,0
714,0.02855999999999992,5.000049991798719,0.003424424840084442,0.0030863088877425564,0
715,0.02859999999999996,5.000378781950543,0.006054743479005864,0.005719776663773192,0
716,0.02864,5.000049991798719,0.004410794328726292,0.004078973600915116,0
717,0.02868000000000004,4.99972120164681,0.0014516858662357995,0.0011230081669866398,0
718,0.02872000000000008,4.99972120164681,0.00013652655288240445,-0.000189011185838315,0
719,0.028759999999999897,4.99972120164681,0.0014516858662357995,0.0011292850108335522,0
720,0.028799999999999937,5.000378781950543,0.001780475694892425,0.0014612086364200285,0
721,0.028839999999999977,5.000049991798719,0.0024380553525874815,0.00212191899547542,0
722,0.028880000000000017,5.000707572102282,0.00506837398845672,0.004755365227952373,0
723,0.028920000000000057,5.000049991798719,0.006054743479005864,0.005744859201171333,0
724,0.028960000000000097,5.000049991798719,0.0030956350107915753,0.00278887209250152,0
725,0.028999999999999915,5.000378781950543,-0.00019226327513760522,-0.0004959079661981097,0
726,0.029039999999999955,5.000378781950543,-0.00019226327513760522,-0.0004927928804751873,0
727,0.029079999999999995,5.000049991798719,-0.001178632758433426,-0.0014760504287484972,0
728,0.029120000000000035,5.000049991798719,0.003753214669504526,0.0034589057743157113,0
729,0.029160000000000075,5.000049991798719,0.00506837398845672,0.0047771706993000665,0
730,0.029200000000000115,5.000378781950543,0.005397163818512657,0.005109062957094234,0
731,0.029239999999999933,4.999392411494816,0.005397163818512657,0.005112162197336748,0
732,0.029279999999999973,4.999392411494816,0.004082004499051814,0.0038000989214189915,0
733,0.029320000000000013,5.000378781950543,0.00013652655288240445,-0.00014228618711236525,0
734,0.029360000000000053,5.000049991798719,0.001122896037706475,0.0008471729202372575,0
735,0.029400000000000093,5.000378781950543,0.001122896037706475,0.0008502593184410356,0
736,0.02943999999999991,5.000049991798719,0.005725953648695714,0.005456400094101213,0
737,0.02947999999999995,5.000049991798719,0.00506837398845672,0.004801900355787507,0
738,0.02951999999999999,5.000378781950543,0.006712323140007484,0.006448926177303354,0
739,0.02956000000000003,5.000049991798719,0.004739584158527918,0.004479260604612432,0
740,0.02960000000000007,5.000378781950543,0.004410794328726292,0.004153540913205097,0
741,0.02964000000000011,4.99972120164681,0.003753214669504526,0.0034990281127637397,0
742,0.02967999999999993,5.000049991798719,0.0014516858662357995,0.0012005628794404227,0
743,0.02971999999999997,5.000378781950543,-0.0008498429307955274,-0.0010979056457031586,0
744,0.02976000000000001,5.000049991798719,0.0027668451816259126,0.0025218394313241952,0
745,0.02980000000000005,5.000049991798719,0.0027668451816259126,0.0025248930794226432,0
746,0.02984000000000009,4.99972120164681,0.0027668451816259126,0.0025279434017865406,0
747,0.029879999999999907,5.000049991798719,0.0021092655236763236,0.0018734107312378076,0
748,0.029919999999999947,4.99972120164681,0.0007941062093044515,0.0005612950600738882,0
749,0.029959999999999987,5.000378781950543,0.0027668451816259126,0.0025370743221791972,0
750,0.030000000000000027,5.000378781950543,0.001780475694892425,0.0015537417625729583,0
751,0.030040000000000067,5.000049991798719,-0.00019226327513760522,-0.00041596365222019115,0
752,0.030080000000000107,5.000049991798719,0.003424424840084442,0.003203754637113362,0
753,0.030119999999999925,5.000049991798719,0.001122896037706475,0.000905252618485335,0
754,0.030159999999999965,4.99972120164681,0.00013652655288240445,-7.809348218773852e-05,0
755,0.030200000000000005,5.000049991798719,0.0027668451816259126,0.002555245121869317,0
756,0.030240000000000045,4.99972120164681,0.0027668451816259126,0.0025582616791058146,0
757,0.030280000000000085,5.000378781950543,0.0014516858662357995,0.0012461154936344793,0
758,0.030319999999999903,5.000049991798719,0.0021092655236763236,0.0019067048444343624,0
759,0.030359999999999943,5.000378781950543,0.0027668451816259126,0.002567290749941205,0
760,0.030399999999999983,5.000049991798719,0.0014516858662357995,0.0012551342270625983,0
761,0.030440000000000023,5.000049991798719,0.0024380553525874815,0.002244503041635479,0
762,0.030480000000000063,5.000049991798719,0.0007941062093044515,0.0006035497530379082,0
763,0.030520000000000103,5.000378781950543,0.001780475694892425,0.0015929116105293222,0
764,0.03055999999999992,5.000049991798719,-0.0005210531030302584,-0.0007056283075190166,0
765,0.03059999999999996,5.000049991798719,0.003753214669504526,0.0035716248436131583,0
766,0.03064,5.000378781950543,0.005397163818512657,0.005218555860693148,0
767,0.03068000000000004,4.99972120164681,0.005725953648695714,0.005550324039173248,0
768,0.03072000000000008,5.000378781950543,0.003753214669504526,0.003580559879254332,0
769,0.0307599999999999,5.000707572102282,0.0021092655236763236,0.001939582014423047,0
770,0.03079999999999994,5.000378781950543,0.001122896037706475,0.0009561802619235881,0
771,0.03083999999999998,4.99972120164681,-0.0018362124133269458,-0.0019999640124176935,0
772,0.03088000000000002,5.000378781950543,0.0027668451816259126,0.0026060541931968158,0
773,0.03092000000000006,5.000049991798719,0.0004653163810297567,0.00030748242797913865,0
774,0.0309600000000001,4.99972120164681,0.004410794328726292,0.004255913826517858,0
775,0.030999999999999917,5.000049991798719,0.004082004499051814,0.003930073853895778,0
776,0.031039999999999957,5.000049991798719,0.0007941062093044515,0.0006451218181571787,0
777,0.031079999999999997,5.000707572102282,-0.00019226327513760522,-0.0003383050245739064,0
778,0.031120000000000037,5.000049991798719,-0.00019226327513760522,-0.00033536600441515024,0
779,0.031160000000000077,5.000049991798719,0.0007941062093044515,0.0006539388693787907,0
780,0.031199999999999894,4.99972120164681,0.001780475694892425,0.0016432401042569315,0
781,0.031239999999999934,4.99972120164681,0.0030956350107915753,0.002961327520129533,0
782,0.031279999999999974,5.000049991798719,0.001780475694892425,0.0016490926456320038,0
783,0.031320000000000014,5.000049991798719,0.0024380553525874815,0.002309593076901653,0
784,0.031360000000000054,5.000049991798719,-0.001178632758433426,-0.001304177937626921,0
785,0.031400000000000095,4.999392411494816,0.0007941062093044515,0.0006714744402657898,0
786,0.03143999999999991,4.99972120164681,0.001780475694892425,0.0016607536404159074,0
787,0.03147999999999995,5.000049991798719,-0.0005210531030302584,-0.0006378691477924286,0
788,0.03151999999999999,5.000378781950543,0.001122896037706475,0.0010089822885558678,0
789,0.03156000000000003,5.000049991798719,0.0004653163810297567,0.00035430120413312014,0
790,0.03160000000000007,5.000049991798719,0.0024380553525874815,0.0023299350153326228,0
791,0.03164000000000011,5.000049991798719,0.00013652655288240445,3.129731340278854e-05,0
792,0.03167999999999993,5.000049991798719,0.0027668451816259126,0.002664503288800944,0
793,0.03171999999999997,5.000049991798719,0.003753214669504526,0.0036537563629598932,0
794,0.03176000000000001,5.000049991798719,0.0014516858662357995,0.001355107376343848,0
795,0.03180000000000005,5.000378781950543,0.0007941062093044515,0.0007004037571845848,0
796,0.03184000000000009,5.000049991798719,0.0027668451816259126,0.002676014979145046,0
797,0.03187999999999991,5.000378781950543,0.004739584158527918,0.004651622408300976,0
798,0.03191999999999995,5.000378781950543,0.0021092655236763236,0.0020241684190667793,0
799,0.03195999999999999,5.000378781950543,0.0014516858662357995,0.0013694495913562379,0
800,0.03200000000000003,5.000378781950543,0.001122896037706475,0.0010435167674192134,0
801,0.03204000000000007,4.99972120164681,-0.00019226327513760522,-0.00026878937521986274,0
802,0.03208000000000011,5.000378781950543,0.0024380553525874815,0.002364378579074013,0
803,0.032119999999999926,4.999063621342738,0.004739584158527918,0.004668752858698848,0
804,0.032159999999999966,5.000049991798719,0.0021092655236763236,0.0020412758353998664,0
805,0.032200000000000006,4.999392411494816,0.0007941062093044515,0.0007289542612022349,0
806,0.032240000000000046,5.000049991798719,0.0024380553525874815,0.0023757372640354174,0
807,0.032280000000000086,5.000049991798719,0.0007941062093044515,0.000734618090433645,0
808,0.032319999999999904,4.99972120164681,-0.0005210531030302584,-0.0005777151513325714,0
809,0.032359999999999944,4.99972120164681,-0.00019226327513760522,-0.00024610316122707174,0
810,0.032399999999999984,4.999392411494816,0.004739584158527918,0.004688562517053796,0
811,0.032440000000000024,5.000049991798719,0.001122896037706475,0.0010746887140094213,0
812,0.032480000000000064,5.000378781950543,-0.00019226327513760522,-0.00023766021713555194,0
813,0.032520000000000104,5.000049991798719,-0.001178632758433426,-0.0012212232640487512,0
814,0.03255999999999992,5.000378781950543,0.00013652655288240445,9.673852909588979e-05,0
815,0.03259999999999996,4.999392411494816,0.0024380553525874815,0.002401065846839889,0
816,0.03264,4.99972120164681,0.0007941062093044515,0.0007599112485711095,0
817,0.03268000000000004,4.999392411494816,-0.0005210531030302584,-0.0005524575010074739,0
818,0.03272000000000008,5.001036362253937,0.001780475694892425,0.0017518578681811406,0
819,0.0327599999999999,5.000378781950543,0.0014516858662357995,0.0014258506100696166,0
820,0.03279999999999994,5.000378781950543,-0.0005210531030302584,-0.0005441097986013332,0
821,0.03283999999999998,5.000378781950543,0.0004653163810297567,0.0004450342268761537,0
822,0.03288000000000002,4.99972120164681,0.0027668451816259126,0.0027493335404860735,0
823,0.03292000000000006,5.001365152405508,0.0030956350107915753,0.003080889845037332,0
824,0.0329600000000001,4.99972120164681,-0.004137741201439435,-0.004149723938659053,0
825,0.03299999999999992,4.99972120164681,-0.0008498429307955274,-0.0008590672955526087,0
826,0.03303999999999996,5.000049991798719,0.003424424840084442,0.0034179547824984657,0
827,0.03308,5.000049991798719,0.0021092655236763236,0.002105545698752474,0
828,0.03312000000000004,5.000707572102282,0.0007941062093044515,0.0007931325333180252,0
829,0.03316000000000008,5.000049991798719,0.0004653163810297567,0.0004670847610422162,0
830,0.033199999999999896,5.000378781950543,0.0014516858662357995,0.0014561922000967125,0
831,0.033239999999999936,4.999392411494816,-0.0005210531030302584,-0.0005138129266812328,0
832,0.033279999999999976,4.99972120164681,0.0024380553525874815,0.0024480252508563955,0
833,0.033320000000000016,4.999392411494816,0.00013652655288240445,0.0001492220432971884,0
834,0.033360000000000056,5.000049991798719,0.004082004499051814,0.004097421442634768,0
835,0.033400000000000096,5.000049991798719,0.0004653163810297567,0.0004834506296016866,0
836,0.033439999999999914,5.000378781950543,0.001122896037706475,0.0011437434338888964,0
837,0.033479999999999954,5.000378781950543,0.0014516858662357995,0.001475242243453215,0
838,0.033519999999999994,4.999063621342738,0.001122896037706475,0.001149157220188689,0
839,0.033560000000000034,5.000049991798719,-0.0005210531030302584,-0.0004920913002457766,0
840,0.033600000000000074,5.001036362253937,0.0007941062093044515,0.0008257644382387412,0
841,0.033640000000000114,4.99972120164681,0.001122896037706475,0.0011572464894506434,0
842,0.03367999999999993,5.000378781950543,-0.0018362124133269458,-0.001799173951297796,0
843,0.03371999999999997,5.000049991798719,-0.0018362124133269458,-0.0017964901627201347,0
844,0.03376000000000001,4.99972120164681,-0.0015074225859438989,-0.0014650207776465652,0
845,0.03380000000000005,4.99972120164681,-0.00019226327513760522,-0.00014718614921406222,0
846,0.03384000000000009,5.000049991798719,-0.00019226327513760522,-0.000144515080826644,0
847,0.03387999999999991,4.99972120164681,0.0014516858662357995,0.0015021008705236537,0
848,0.03391999999999995,5.000707572102282,0.0021092655236763236,0.0021623430703616117,0
849,0.03395999999999999,4.99972120164681,0.0004653163810297567,0.0005210521933669329,0
850,0.03400000000000003,4.99972120164681,0.00013652655288240445,0.0001949163449627288,0
851,0.03404000000000007,5.000049991798719,0.0014516858662357995,0.0015127253429902932,0
852,0.03408000000000011,4.99972120164681,-0.0005210531030302584,-0.0004573682458278096,0
853,0.03411999999999993,5.000378781950543,-0.0005210531030302584,-0.0004547271787602573,0
854,0.03415999999999997,5.001036362253937,0.0004653163810297567,0.0005342790498358261,0
855,0.03420000000000001,5.000378781950543,0.0024380553525874815,0.0025096504342502148,0
856,0.03424000000000005,5.001036362253937,0.0014516858662357995,0.0015259090199310828,0
857,0.03428000000000009,4.999063621342738,-0.0024937920677107622,-0.0024169451919484955,0
858,0.034319999999999906,5.000707572102282,-0.00348016154833046,-0.0034006953096049164,0
859,0.034359999999999946,5.000378781950543,-0.0005210531030302584,-0.0004389718695799118,0
860,0.034399999999999986,5.000707572102282,-0.0028225818947114484,-0.002737890043906098,0
861,0.034440000000000026,5.001365152405508,0.0024380553525874815,0.0025253534342501776,0
862,0.034480000000000066,4.99972120164681,-0.0005210531030302584,-0.00043115318613217183,0
863,0.034520000000000106,4.99972120164681,-0.00019226327513760522,-9.976592774680985e-05,0
864,0.034559999999999924,4.999392411494816,0.003424424840084442,0.0035195152041081874,0
865,0.034599999999999964,4.9970908804284875,-0.0018362124133269458,-0.0017385334556433794,0
866,0.034640000000000004,5.001036362253937,0.0007941062093044515,0.0008943693285650696,0
867,0.034680000000000044,5.001036362253937,-0.0005210531030302584,-0.00041821026338116933,0
868,0.034720000000000084,5.000049991798719,0.0021092655236763236,0.0022146836334233384,0
869,0.0347599999999999,5.000049991798719,0.0007941062093044515,0.0009020951297608029,0
870,0.03479999999999994,5.000378781950543,0.0004653163810297567,0.0005758716437127666,0
871,0.03483999999999998,5.000049991798719,-0.0005210531030302584,-0.0004079359756933368,0
872,0.03488000000000002,5.000378781950543,-0.00348016154833046,-0.00336448704299837,0
873,0.03492000000000006,4.99972120164681,-0.001178632758433426,-0.0010604053708467916,0
874,0.0349600000000001,5.000049991798719,-0.002165002240582567,-0.002044226475559704,0
875,0.03499999999999992,5.000378781950543,-0.0015074225859438989,-0.0013841029573765868,0
876,0.03503999999999996,5.000707572102282,-0.002165002240582567,-0.002039143271431761,0
877,0.03508,4.99972120164681,0.00013652655288240445,0.0002649203305909009,0
878,0.03512000000000004,5.000707572102282,0.001122896037706475,0.0012538200828864057,0
879,0.03516000000000008,4.99972120164681,-0.0005210531030302584,-0.00038760334052116794,0
880,0.0351999999999999,5.000049991798719,-0.0031513717215847087,-0.0030154008009402617,0
881,0.03523999999999994,4.99972120164681,-0.0005210531030302584,-0.00038256559249124104,0
882,0.03527999999999998,4.99972120164681,0.0004653163810297567,0.0006063159041801891,0
883,0.03532000000000002,4.999063621342738,0.00013652655288240445,0.0002800335023233839,0
884,0.03536000000000006,5.000049991798719,-0.0008498429307955274,-0.0007038331504178666,0
885,0.0354000000000001,4.99972120164681,0.00013652655288240445,0.0002850345598146495,0
886,0.035439999999999916,5.000707572102282,0.0014516858662357995,0.0016026874863171285,0
887,0.035479999999999956,4.99972120164681,-0.0018362124133269458,-0.0016827218025205534,0
888,0.035519999999999996,5.000378781950543,-0.0015074225859438989,-0.0013514476158500545,0
889,0.035560000000000036,5.000378781950543,-0.0018362124133269458,-0.0016777577243918484,0
890,0.035600000000000076,5.000378781950543,0.00013652655288240445,0.00029745631120902294,0
891,0.035639999999999894,5.000707572102282,-0.00019226327513760522,-2.8863105867611835e-05,0
892,0.035679999999999934,4.99972120164681,-0.0018362124133269458,-0.0016703465005549734,0
893,0.035719999999999974,5.000049991798719,0.001780475694892425,0.0019488026747369529,0
894,0.035760000000000014,5.000049991798719,-0.0008498429307955274,-0.0006790595692905983,0
895,0.035800000000000054,4.99972120164681,-0.0031513717215847087,-0.0029781366728089346,0
896,0.035840000000000094,5.000707572102282,-0.0028225818947114484,-0.0026468998620263837,0
897,0.03587999999999991,4.99972120164681,-0.0018362124133269458,-0.0016580881090606722,0
898,0.03591999999999995,4.99972120164681,-0.0028225818947114484,-0.002642020040153041,0
899,0.03595999999999999,5.000049991798719,-0.0008498429307955274,-0.0006668482561894644,0
900,0.03600000000000003,5.000049991798719,-0.001178632758433426,-0.0009932100029739189,0
901,0.03604000000000007,5.000049991798719,0.0004653163810297567,0.0006531624692044686,0
902,0.03608000000000011,4.99972120164681,0.0007941062093044515,0.0009843708731178775,0
903,0.03611999999999993,5.000049991798719,-0.001178632758433426,-0.0009859542849901992,0
904,0.03615999999999997,5.000049991798719,-0.0005210531030302584,-0.00032596559489268145,0
905,0.03620000000000001,5.000378781950543,-0.0005210531030302584,-0.0003235613440543644,0
906,0.03624000000000005,4.99972120164681,-0.003808951374948702,-0.0036090601579050986,0
907,0.03628000000000009,4.99972120164681,-0.003808951374948702,-0.003606665501516513,0
908,0.03631999999999991,4.99972120164681,-0.0008498429307955274,-0.0006451672115562624,0
909,0.03635999999999995,5.000049991798719,-0.004466531027802631,-0.004259470282233989,0
910,0.03639999999999999,5.000049991798719,0.0004653163810297567,0.0006747573245601127,0
911,0.03644000000000003,5.000049991798719,-0.0008498429307955274,-0.0006380266265547494,0
912,0.03648000000000007,5.000378781950543,-0.002165002240582567,-0.0019508154217599393,0
913,0.03652000000000011,5.000378781950543,-0.001178632758433426,-0.0009620802800283728,0
914,0.036559999999999926,5.000378781950543,0.00013652655288240445,0.00035543982700610025,0
915,0.036599999999999966,5.000378781950543,-0.0018362124133269458,-0.0016149432162061998,0
916,0.036640000000000006,4.999392411494816,-0.0018362124133269458,-0.0016125921747819436,0
917,0.036680000000000046,5.000049991798719,-0.0028225818947114484,-0.0025966155051595037,0
918,0.036720000000000086,5.000378781950543,-0.0024937920677107622,-0.002265484426406968,0
919,0.036759999999999904,4.99972120164681,-0.00348016154833046,-0.0032495175633608757,0
920,0.036799999999999944,4.99972120164681,-0.0031513717215847087,-0.0029183963098594985,0
921,0.036839999999999984,5.000378781950543,-0.0008498429307955274,-0.0006145410180420222,0
922,0.036880000000000024,4.99972120164681,-0.001178632758433426,-0.0009410092791891282,0
923,0.036920000000000064,5.000049991798719,-0.00019226327513760522,4.7676827256861506e-05,0
924,0.036960000000000104,5.000378781950543,-0.00348016154833046,-0.0032379097749224432,0
925,0.03699999999999992,5.000049991798719,-0.00019226327513760522,5.2295208358514415e-05,0
926,0.03703999999999996,5.000049991798719,-0.0015074225859438989,-0.001260562362066692,0
927,0.03708,5.000378781950543,-0.0005210531030302584,-0.0002718961172532605,0
928,0.03712000000000004,4.99972120164681,0.00013652655288240445,0.00038797531331098126,0
929,0.03716000000000008,5.000378781950543,-0.0005210531030302584,-0.00026731756395780796,0
930,0.0371999999999999,5.000049991798719,-0.00019226327513760522,6.375403781900212e-05,0
931,0.03723999999999994,5.000049991798719,-0.0024937920677107622,-0.002235497994374176,0
932,0.03727999999999998,4.99972120164681,-0.0015074225859438989,-0.0012468567744683642,0
933,0.03732000000000002,5.000049991798719,0.0004653163810297567,0.0007281488996740392,0
934,0.03736000000000006,5.000049991798719,-0.001178632758433426,-0.00091353857231202,0
935,0.0374000000000001,5.000049991798719,0.001122896037706475,0.0013902468428997575,0
936,0.03743999999999992,5.000049991798719,0.001122896037706475,0.001392498404860651,0
937,0.03747999999999996,5.000049991798719,-0.0024937920677107622,-0.0022219432044044748,0
938,0.03752,5.000378781950543,-0.0024937920677107622,-0.0022197017827509445,0
939,0.03756000000000004,5.000049991798719,-0.003808951374948702,-0.0035326247515156586,0
940,0.03760000000000008,4.99972120164681,-0.001178632758433426,-0.0009000748883810561,0
941,0.037639999999999896,4.99972120164681,-0.0005210531030302584,-0.00024026908687784431,0
942,0.037679999999999936,5.000378781950543,-0.0031513717215847087,-0.0028683666685086514,0
943,0.037719999999999976,5.000707572102282,0.00013652655288240445,0.00042174752505691145,0
944,0.037760000000000016,5.000049991798719,0.001780475694892425,0.00206790745969981,0
945,0.037800000000000056,5.000049991798719,0.0014516858662357995,0.0017413232885785767,0
946,0.037840000000000096,4.99972120164681,-0.0024937920677107622,-0.0022019541315534577,0
947,0.037879999999999914,4.99972120164681,-0.001178632758433426,-0.0008845994607972472,0
948,0.037919999999999954,5.000049991798719,0.00013652655288240445,0.00043275005105569263,0
949,0.037959999999999994,4.99972120164681,0.001122896037706475,0.0014213045668777292,0
950,0.038000000000000034,5.000049991798719,-0.0005210531030302584,-0.00022046472098875846,0
951,0.038040000000000074,5.000707572102282,-0.00019226327513760522,0.00011049977306670843,0
952,0.038080000000000114,5.000707572102282,-0.004137741201439435,-0.003832808682350507,0
953,0.03811999999999993,5.000378781950543,-0.0008498429307955274,-0.0005427461446619603,0
954,0.03815999999999997,5.000378781950543,-0.0028225818947114484,-0.0025133260539259086,0
955,0.03820000000000001,5.000049991798719,-0.0015074225859438989,-0.0011960129114426225,0
956,0.03824000000000005,5.000707572102282,0.00013652655288240445,0.0004500848316288197,0
957,0.03828000000000009,4.99972120164681,0.0007941062093044515,0.001109807854300311,0
958,0.03831999999999991,5.000049991798719,-0.0015074225859438989,-0.0011895828212100546,0
959,0.03835999999999995,5.000378781950543,0.001780475694892425,0.002100448324346423,0
960,0.03839999999999999,5.000707572102282,-0.001178632758433426,-0.0008565325277739909,0
961,0.03844000000000003,4.999392411494816,0.0014516858662357995,0.0017759084260985923,0
962,0.03848000000000007,5.000378781950543,-0.001178632758433426,-0.0008522931498470983,0
963,0.03852000000000011,5.000049991798719,-0.0024937920677107622,-0.0021653406993488015,0
964,0.03855999999999993,5.000049991798719,-0.002165002240582567,-0.0018344444098512057,0
965,0.03859999999999997,5.000378781950543,-0.0031513717215847087,-0.002818712734338697,0
966,0.03864000000000001,5.000378781950543,-0.0008498429307955274,-0.0005150881013282562,0
967,0.03868000000000005,4.99972120164681,0.0004653163810297567,0.0008021617299962124,0
968,0.03872000000000009,4.99972120164681,-0.001178632758433426,-0.0008397022211085311,0
969,0.038759999999999906,4.99972120164681,0.0014516858662357995,0.0017926962523697985,0
970,0.038799999999999946,4.99972120164681,-0.00019226327513760522,0.00015082161185773926,0
971,0.038839999999999986,4.99972120164681,0.00013652655288240445,0.00048168058440312416,0
972,0.038880000000000026,4.99972120164681,0.0004653163810297567,0.0008125341923619684,0
973,0.038920000000000066,4.99972120164681,-0.0015074225859438989,-0.0011581463678816276,0
974,0.038960000000000106,4.99972120164681,-0.00019226327513760522,0.00015906596821617294,0
975,0.038999999999999924,4.99972120164681,-0.0005210531030302584,-0.0001676762241701364,0
976,0.039039999999999964,4.999392411494816,-0.0008498429307955274,-0.0004944238145502646,0
977,0.039080000000000004,5.000378781950543,-0.002165002240582567,-0.0018075462933987625,0
978,0.039120000000000044,5.000378781950543,-0.0008498429307955274,-0.0004903555674344645,0
979,0.039160000000000084,5.000378781950543,-0.0005210531030302584,-0.00015953974655711386,0
980,0.0391999999999999,5.000378781950543,-0.0005210531030302584,-0.00015751918480324623,0
981,0.03923999999999994,5.000378781950543,0.0007941062093044515,0.0011596552496450085,0
982,0.03927999999999998,5.000049991798719,0.001122896037706475,0.0014904547522491469,0
983,0.03932000000000002,5.000049991798719,0.0007941062093044515,0.001163669141877767,0
984,0.03936000000000006,4.99972120164681,-0.0018362124133269458,-0.0014646507271433577,0
985,0.0394000000000001,4.99972120164681,-0.0005210531030302584,-0.00014749813589445945,0
986,0.03943999999999992,5.000049991798719,-0.002165002240582567,-0.001789459473379021,0
987,0.03947999999999996,5.000707572102282,0.0004653163810297567,0.0008428414592015277,0
988,0.03952,5.000049991798719,0.0007941062093044515,0.001173608101141302,0
989,0.03956000000000004,5.000049991798719,0.0024380553525874815,0.0028195285525941267,0
990,0.03960000000000008,5.000378781950543,-0.00348016154833046,-0.0030967225538298788,0
991,0.0396399999999999,5.000049991798719,0.0014516858662357995,0.0018370851333854926,0
992,0.03967999999999994,5.000049991798719,-0.0015074225859438989,-0.0011200685761471548,0
993,0.03971999999999998,5.000378781950543,0.00013652655288240445,0.0005258297671786602,0
994,0.03976000000000002,5.000049991798719,0.0014516858662357995,0.0018429327387504192,0
995,0.03980000000000006,5.000378781950543,-0.00019226327513760522,0.00020092170119255135,0
996,0.0398400000000001,5.000378781950543,0.0021092655236763236,0.002504383041309507,0
997,0.039879999999999916,4.999392411494816,-0.00019226327513760522,0.00020478121318849378,0
998,0.039919999999999956,5.000049991798719,-0.0015074225859438989,-0.0011084567056204582,0
999,0.039959999999999996,5.000707572102282,-0.0018362124133269458,-0.0014353307277749764,0
1000,0.040000000000000036,4.99972120164681,-0.0005210531030302584,-0.00011826120707951688,0
1001,0.040040000000000076,5.000049991798719,0.001780475694892425,0.0021851721983636037,0
1002,0.040080000000000116,5.000378781950543,-0.0005210531030302584,-0.0001144576029531144,0
1003,0.040119999999999933,5.000378781950543,0.0021092655236763236,0.0025177544014213177,0
1004,0.040159999999999973,5.000049991798719,0.001122896037706475,0.0015332726661701586,0
1005,0.040200000000000014,5.000378781950543,-0.0008498429307955274,-0.0004375841865607165,0
1006,0.040240000000000054,5.000378781950543,-0.00019226327513760522,0.00022187194193509302,0
1007,0.040280000000000094,4.99972120164681,0.0014516858662357995,0.0018676919052402667,0
1008,0.04031999999999991,4.99972120164681,0.00013652655288240445,0.0005543977549525137,0
1009,0.04035999999999995,4.99972120164681,0.001122896037706475,0.0015426267360290251,0
1010,0.04039999999999999,5.000049991798719,0.0007941062093044515,0.0012156907291321897,0
1011,0.04044000000000003,4.999392411494816,-0.001178632758433426,-0.0007552000997687175,0
1012,0.04048000000000007,4.999392411494816,-0.00019226327513760522,0.00023301183178804896,0
1013,0.04052000000000011,5.000378781950543,0.0007941062093044515,0.00122121806602046,0
1014,0.04055999999999993,5.000378781950543,-0.001178632758433426,-0.0007496898582789147,0
1015,0.04059999999999997,5.000049991798719,-0.0008498429307955274,-0.00041907470142225206,0
1016,0.04064000000000001,5.000378781950543,0.0004653163810297567,0.0008979042175476291,0
1017,0.04068000000000005,5.000707572102282,0.003424424840084442,0.0038588265538318455,0
1018,0.04072000000000009,5.000378781950543,0.001780475694892425,0.002216685548127005,0
1019,0.04075999999999991,5.000378781950543,0.0021092655236763236,0.002547277770842105,0
1020,0.04079999999999995,4.99972120164681,0.0024380553525874815,0.0028778642403286315,0
1021,0.04083999999999999,5.000378781950543,0.0007941062093044515,0.0012357059764791147,0
1022,0.04088000000000003,5.000707572102282,-0.0005210531030302584,-7.766822533605551e-05,0
1023,0.04092000000000007,5.000707572102282,0.0004653163810297567,0.0009104805925713892,0
1024,0.04096000000000011,4.99972120164681,0.0014516858662357995,0.0018986236272086738,0
1025,0.040999999999999925,5.000378781950543,0.001122896037706475,0.0015716015559644535,0
1026,0.041039999999999965,5.000378781950543,-0.00019226327513760522,0.000258204200543592,0
1027,0.041080000000000005,5.000378781950543,-0.003808951374948702,-0.003356727749407642,0
1028,0.041120000000000045,4.99972120164681,0.0014516858662357995,0.0019056598263862401,0
1029,0.041160000000000085,4.999392411494816,0.0007941062093044515,0.00124982468114111,0
1030,0.0411999999999999,5.000378781950543,0.001780475694892425,0.0022379328478339404,0
1031,0.04123999999999994,5.000378781950543,0.0027668451816259126,0.003226035177447305,0
1032,0.04127999999999998,5.000707572102282,0.0004653163810297567,0.0009262333738770706,0
1033,0.04132000000000002,5.000049991798719,0.003753214669504526,0.004215852805909546,0
1034,0.04136000000000006,5.000378781950543,-0.00019226327513760522,0.00027209014375745094,0
1035,0.0414000000000001,5.000049991798719,0.00013652655288240445,0.0006025893856152226,0
1036,0.04143999999999992,5.000378781950543,0.001780475694892425,0.0022482420652410818,0
1037,0.04147999999999996,5.000378781950543,-0.00019226327513760522,0.0002772007490503372,0
1038,0.04152,5.000378781950543,-0.002165002240582567,-0.0016938464538714375,0
1039,0.04156000000000004,5.000049991798719,0.001122896037706475,0.001595737688100315,0
1040,0.04160000000000008,5.000378781950543,0.003424424840084442,0.003898946447811393,0
1041,0.0416399999999999,4.99972120164681,0.0014516858662357995,0.0019278815174524505,0
1042,0.04167999999999994,5.000378781950543,0.0004653163810297567,0.0009431801544142539,0
1043,0.04171999999999998,4.99972120164681,0.0004653163810297567,0.0009448423477972622,0
1044,0.04176000000000002,5.000049991798719,0.0014516858662357995,0.0019328680901540207,0
1045,0.04180000000000006,5.000378781950543,-0.001178632758433426,-0.000695800221028631,0
1046,0.0418400000000001,5.000049991798719,0.0007941062093044515,0.0012785831091154988,0
1047,0.04187999999999992,4.999392411494816,0.003753214669504526,0.004239329973241087,0
1048,0.04191999999999996,4.99972120164681,0.001780475694892425,0.002268223436689169,0
1049,0.04196,5.000707572102282,0.001122896037706475,0.0016122702443293604,0
1050,0.04200000000000004,5.000049991798719,0.001780475694892425,0.002271470385754668,0
1051,0.04204000000000008,5.000049991798719,0.0024380553525874815,0.0029306645397656032,0
1052,0.042079999999999895,5.000049991798719,0.001122896037706475,0.0016171137259564144,0
1053,0.042119999999999935,5.000049991798719,0.0014516858662357995,0.0019475060530090996,0
1054,0.042159999999999975,5.000378781950543,0.0027668451816259126,0.0032642618570859895,0
1055,0.042200000000000015,5.000049991798719,0.0024380553525874815,0.0029370624996259685,0
1056,0.042240000000000055,4.999392411494816,0.0027668451816259126,0.0032674367758790735,0
1057,0.042280000000000095,5.000049991798719,0.001122896037706475,0.0016250660475716936,0
1058,0.04231999999999991,5.000378781950543,0.0004653163810297567,0.0009690587676821011,0
1059,0.04235999999999995,5.000049991798719,0.0004653163810297567,0.0009706250984386236,0
1060,0.04239999999999999,5.000049991798719,0.0021092655236763236,0.002616134518622159,0
1061,0.04244000000000003,4.999392411494816,0.004739584158527918,0.005248007370619015,0
1062,0.04248000000000007,4.99972120164681,0.0030956350107915753,0.0036056063724809496,0
1063,0.04252000000000011,5.000707572102282,0.0024380553525874815,0.0029495687891897965,0
1064,0.04255999999999993,4.998734831190575,0.0004653163810297567,0.0009783658107383407,0
1065,0.04259999999999997,5.001036362253937,-0.0005210531030302584,-6.4737691263271925e-06,0
1066,0.04264000000000001,5.000378781950543,-0.0031513717215847087,-0.002635268579483437,0
1067,0.04268000000000005,4.999063621342738,0.0007941062093044515,0.0013117270565352055,0
1068,0.04272000000000009,5.001693942556992,-0.0015074225859438989,-0.0009882901437040458,0
1069,0.04275999999999991,4.999392411494816,0.0021092655236763236,0.0026299034437697413,0
1070,0.04279999999999995,5.001036362253937,0.003424424840084442,0.003946562113858219,0
1071,0.04283999999999999,4.99972120164681,0.001122896037706475,0.0016465265339872706,0
1072,0.04288000000000003,5.000707572102282,0.0007941062093044515,0.001319223789936403,0
1073,0.04292000000000007,5.001036362253937,0.0004653163810297567,0.0009919149008921868,0
1074,0.04296000000000011,5.000378781950543,-0.001178632758433426,-0.000650559451408233,0
1075,0.04299999999999993,5.000378781950543,0.00506837398845672,0.005597915923647765,0
1076,0.04303999999999997,4.997748460733576,0.0024380553525874815,0.0029690597500362133,0
1077,0.04308000000000001,5.000049991798719,0.0021092655236763236,0.0026417262105812938,0
1078,0.04312000000000005,5.000049991798719,-0.0005210531030302584,1.2857693654299597e-05,0
1079,0.04316000000000009,5.000378781950543,-0.001178632758433426,-0.0006432780385029911,0
1080,0.043199999999999905,4.999392411494816,0.001780475694892425,0.00231726814469619,0
1081,0.043239999999999945,5.000378781950543,0.0021092655236763236,0.0026474895031603366,0
1082,0.043279999999999985,4.99972120164681,0.0014516858662357995,0.001991335168404802,0
1083,0.043320000000000025,5.000049991798719,0.004082004499051814,0.004623072910126806,0
1084,0.043360000000000065,5.000049991798719,0.004739584158527918,0.005282065457964674,0
1085,0.043400000000000105,5.000378781950543,0.004410794328726292,0.004954682289233941,0
1086,0.04343999999999992,4.99972120164681,0.0024380553525874815,0.002983343740147157,0
1087,0.04347999999999996,5.000378781950543,0.003424424840084442,0.003971107413968,0
1088,0.04352,4.99972120164681,-0.00019226327513760522,0.00035580723765124144,0
1089,0.04356000000000004,4.99972120164681,0.0021092655236763236,0.0026587177212802886,0
1090,0.04360000000000008,5.000049991798719,0.005725953648695714,0.006276781270372032,0
1091,0.0436399999999999,5.000378781950543,0.0014516858662357995,0.002003882644608154,0
1092,0.04367999999999994,5.000049991798719,0.005725953648695714,0.006279513309773323,0
1093,0.04371999999999998,5.000049991798719,0.00013652655288240445,0.0006914428160792265,0
1094,0.04376000000000002,5.000707572102282,-0.0005210531030302584,3.52134751236998e-05,0
1095,0.04380000000000006,5.000049991798719,0.0014516858662357995,0.002009296465628117,0
1096,0.0438400000000001,5.000378781950543,0.001780475694892425,0.002339424015267025,0
1097,0.04387999999999992,4.99972120164681,0.001780475694892425,0.0023407554294753983,0
1098,0.04391999999999996,5.000049991798719,0.001780475694892425,0.002342080530411575,0
1099,0.04396,4.999392411494816,0.008356272294735026,0.008919195911439486,0
1100,0.04400000000000004,5.000049991798719,0.004082004499051814,0.004646240570731756,0
1101,0.04404000000000008,5.000378781950543,0.005397163818512657,0.005962706012519038,0
1102,0.0440799999999999,5.000049991798719,0.001122896037706475,0.0016897380149708905,0
1103,0.04411999999999994,5.000378781950543,0.0021092655236763236,0.002677400938730914,0
1104,0.04415999999999998,5.000378781950543,0.0030956350107915753,0.0036650575117890246,0
1105,0.04420000000000002,5.000049991798719,0.00013652655288240445,0.0007072297816160013,0
1106,0.04424000000000006,5.000049991798719,-0.00019226327513760522,0.00037971431678615977,0
1107,0.0442800000000001,4.99972120164681,0.001780475694892425,0.002353721279141321,0
1108,0.044319999999999915,5.000049991798719,-0.0015074225859438989,-0.0009329153865336808,0
1109,0.044359999999999955,4.99972120164681,-0.0015074225859438989,-0.0009316601548146016,0
1110,0.044399999999999995,5.000049991798719,-0.0005210531030302584,5.5958170117872746e-05,0
1111,0.044440000000000035,5.000378781950543,-0.0008498429307955274,-0.00027158921156631745,0
1112,0.044480000000000075,5.000378781950543,0.0024380553525874815,0.003017545115743066,0
1113,0.044520000000000115,4.999392411494816,0.003753214669504526,0.0043339340682354765,0
1114,0.04455999999999993,5.000049991798719,0.004082004499051814,0.004663947118831524,0
1115,0.04459999999999997,5.000707572102282,0.001122896037706475,0.001706055457853518,0
1116,0.04464000000000001,4.99972120164681,0.004082004499051814,0.004666374292750785,0
1117,0.04468000000000005,5.000049991798719,0.0076986926324629085,0.008284266366785361,0
1118,0.04472000000000009,5.000707572102282,0.004410794328726292,0.0049975655646517445,0
1119,0.04475999999999991,5.000049991798719,-0.00019226327513760522,0.0003956990172993694,0
1120,0.04479999999999995,4.99972120164681,0.0014516858662357995,0.002040832764042957,0
1121,0.04483999999999999,4.99972120164681,0.0021092655236763236,0.0026995905696836848,0
1122,0.04488000000000003,4.99972120164681,-0.00019226327513760522,0.0003992334558926159,0
1123,0.04492000000000007,5.000707572102282,0.001122896037706475,0.0017155579845961934,0
1124,0.04496000000000011,5.000049991798719,0.0004653163810297567,0.0010591370686510162,0
1125,0.04499999999999993,4.99972120164681,0.001122896037706475,0.0017178689849882097,0
1126,0.04503999999999997,4.99972120164681,0.003753214669504526,0.004349333389454124,0
1127,0.04508000000000001,5.000378781950543,0.0021092655236763236,0.0027065235234012695,0
1128,0.04512000000000005,4.99972120164681,0.0021092655236763236,0.002707656304405894,0
1129,0.04516000000000009,5.000049991798719,0.004082004499051814,0.004681521556158857,0
1130,0.04519999999999991,4.99972120164681,0.0021092655236763236,0.0027099023466991105,0
1131,0.04523999999999995,5.000378781950543,0.001122896037706475,0.0017246461103706033,0
1132,0.04527999999999999,5.000049991798719,0.0004653163810297567,0.0010681731812701367,0
1133,0.04532000000000003,4.99972120164681,0.0004653163810297567,0.0010692733810126662,0
1134,0.04536000000000007,5.000378781950543,0.004082004499051814,0.004687055165197022,0
1135,0.04540000000000011,5.000378781950543,0.001780475694892425,0.0023866134878953917,0
1136,0.045439999999999925,5.000378781950543,0.0027668451816259126,0.003374063556480042,0
1137,0.045479999999999965,5.000049991798719,0.0021092655236763236,0.0027175579296952954,0
1138,0.045520000000000005,5.000378781950543,-0.001178632758433426,-0.0005692728775932568,0
1139,0.045560000000000045,5.000378781950543,0.0007941062093044515,0.0014045270029873127,0
1140,0.045600000000000085,5.000707572102282,0.0024380553525874815,0.003049530491522222,0
1141,0.0456399999999999,5.000378781950543,0.0024380553525874815,0.0030505782635935914,0
1142,0.04567999999999994,5.000049991798719,0.0007941062093044515,0.0014076703136344012,0
1143,0.04571999999999998,5.000049991798719,-0.00019226327513760522,0.00042233543822438584,0
1144,0.04576000000000002,5.000378781950543,0.0004653163810297567,0.0010809431136105405,0
1145,0.04580000000000006,4.999392411494816,-0.001178632758433426,-0.0005619846019456563,0
1146,0.0458400000000001,5.000049991798719,-0.001178632758433426,-0.0005609697788260797,0
1147,0.04587999999999992,4.99972120164681,0.001122896037706475,0.0017415672341934189,0
1148,0.04591999999999996,5.000049991798719,0.0027668451816259126,0.0033865179833230162,0
1149,0.04596,5.000049991798719,0.004082004499051814,0.004702672288883353,0
1150,0.04600000000000004,4.99972120164681,0.003753214669504526,0.004374870825011734,0
1151,0.04604000000000008,4.99972120164681,0.005397163818512657,0.006019801711877035,0
1152,0.0460799999999999,5.000378781950543,-0.00019226327513760522,0.0004313497229290902,0
1153,0.04611999999999994,5.000049991798719,0.0021092655236763236,0.0027338469879775564,0
1154,0.04615999999999998,5.000049991798719,0.001122896037706475,0.0017484393244850693,0
1155,0.04620000000000002,5.000378781950543,-0.0005210531030302584,0.00010544535720270233,0
1156,0.04624000000000006,5.000049991798719,0.0014516858662357995,0.0020791328456579656,0
1157,0.0462800000000001,5.000378781950543,0.003424424840084442,0.004052813679212215,0
1158,0.04631999999999992,4.99972120164681,0.003424424840084442,0.004053748874239582,0
1159,0.04635999999999996,4.99972120164681,0.001122896037706475,0.0017531485970399517,0
1160,0.0464,5.000707572102282,0.001122896037706475,0.0017540704472223932,0
1161,0.04644000000000004,5.000049991798719,0.0004653163810297567,0.0010974059606093617,0
1162,0.04648000000000008,4.99972120164681,-0.00019226327513760522,0.0004407347892881391,0
1163,0.046519999999999895,5.000378781950543,0.004739584158527918,0.005373484017507601,0
1164,0.046559999999999935,5.000707572102282,0.0014516858662357995,0.002086480824426789,0
1165,0.046599999999999975,5.000049991798719,-0.001178632758433426,-0.0005429494013999368,0
1166,0.046640000000000015,5.000049991798719,0.004082004499051814,0.004718569549557169,0
1167,0.046680000000000055,4.99972120164681,-0.0005210531030302584,0.00011638693059892735,0
1168,0.046720000000000095,4.99972120164681,0.0004653163810297567,0.0011036246824817919,0
1169,0.04675999999999991,5.000049991798719,0.0014516858662357995,0.002090855715281311,0
1170,0.04679999999999995,4.99972120164681,0.0021092655236763236,0.0027492901951821557,0
1171,0.04683999999999999,5.000049991798719,0.003753214669504526,0.004394087433458418,0
1172,0.04688000000000003,5.000049991798719,0.003424424840084442,0.004066138961619778,0
1173,0.04692000000000007,4.99972120164681,0.0021092655236763236,0.0027518142630969405,0
1174,0.04696000000000011,5.000378781950543,0.001122896037706475,0.0017662726505115346,0
1175,0.04699999999999993,5.000049991798719,0.0004653163810297567,0.0011095141179386916,0
1176,0.04703999999999997,5.000378781950543,-0.00348016154833046,-0.002835149441352932,0
1177,0.04708000000000001,5.000378781950543,-0.0008498429307955274,-0.00020402321251434012,0
1178,0.04712000000000005,4.99972120164681,-0.001178632758433426,-0.0005320121923180089,0
1179,0.04716000000000009,5.000049991798719,-0.00019226327513760522,0.00045515137066330516,0
1180,0.04719999999999991,5.000378781950543,0.0021092655236763236,0.0027574674763599497,0
1181,0.04723999999999995,5.000378781950543,0.0024380553525874815,0.003087037834722336,0
1182,0.04727999999999999,5.000049991798719,0.0024380553525874815,0.003087811582138757,0
1183,0.04732000000000003,5.000378781950543,0.00013652655288240445,0.0007870497432374336,0
1184,0.04736000000000007,5.000049991798719,-0.0018362124133269458,-0.0011849290533331724,0
1185,0.04740000000000011,4.99972120164681,0.00013652655288240445,0.0007885632868231552,0
1186,0.04743999999999993,4.99972120164681,0.0004653163810297567,0.0011180996887246181,0
1187,0.04747999999999997,5.000049991798719,0.0030956350107915753,0.0037491580875722843,0
1188,0.04752000000000001,4.99972120164681,0.0014516858662357995,0.002105941902984476,0
1189,0.04756000000000005,5.000049991798719,-0.0005210531030302584,0.0001339290801447143,0
1190,0.04760000000000009,5.000049991798719,0.001780475694892425,0.0024361772065541356,0
1191,0.047639999999999905,5.000378781950543,0.0014516858662357995,0.0021080998840727807,0
1192,0.047679999999999945,5.000049991798719,-0.0008498429307955274,-0.00019272323344062372,0
1193,0.047719999999999985,4.99972120164681,-0.0008498429307955274,-0.0001920243848998306,0
1194,0.047760000000000025,5.000378781950543,0.0024380553525874815,0.003096565911753228,0
1195,0.047800000000000065,4.99972120164681,-0.0008498429307955274,-0.0001906471978978556,0
1196,0.047840000000000105,5.000378781950543,-0.0024937920677107622,-0.001833918004860392,0
1197,0.04787999999999992,4.99972120164681,-0.0028225818947114484,-0.00216203634990235,0
1198,0.04791999999999996,4.999392411494816,-0.0005210531030302584,0.00014015707155527746,0
1199,0.04796,5.000049991798719,0.001122896037706475,0.0017847639857243333,0
1200,0.04800000000000004,5.000378781950543,-0.0015074225859438989,-0.0008449037249730982,0
1201,0.04804000000000008,5.000378781950543,0.0024380553525874815,0.0031012182619231895,0
1202,0.0480799999999999,5.000378781950543,0.005725953648695714,0.006389753737726336,0
1203,0.04811999999999994,5.000378781950543,-0.0028225818947114484,-0.002158151498711118,0
1204,0.04815999999999998,4.99972120164681,-0.0028225818947114484,-0.002157528068495048,0
1205,0.04820000000000002,5.001036362253937,-0.0008498429307955274,-0.00018417255511821986,0
1206,0.04824000000000006,4.99972120164681,-0.0005210531030302584,0.00014522693737821371,0
1207,0.0482800000000001,5.000049991798719,-0.0008498429307955274,-0.0001829601143332111,0
1208,0.04831999999999992,5.000049991798719,0.0024380553525874815,0.003105534052505807,0
1209,0.04835999999999996,5.000049991798719,-0.00019226327513760522,0.0004758044117455164,0
1210,0.0484,4.99972120164681,-0.0008498429307955274,-0.00018119315730502628,0
1211,0.04844000000000004,5.000378781950543,-0.0024937920677107622,-0.0018245671118092472,0
1212,0.04848000000000008,5.000049991798719,-0.0005210531030302584,0.00014874012727426195,0
1213,0.0485199999999999,5.000378781950543,-0.0031513717215847087,-0.002481017128669445,0
1214,0.04855999999999994,5.000049991798719,0.0014516858662357995,0.002122594906212718,0
1215,0.04859999999999998,5.000378781950543,0.0004653163810297567,0.0011367729487899289,0
1216,0.04864000000000002,4.99972120164681,0.001780475694892425,0.0024524728674556904,0
1217,0.04868000000000006,5.000378781950543,0.0004653163810297567,0.0011378472317418288,0
1218,0.0487200000000001,5.000378781950543,0.0014516858662357995,0.002124743464795942,0
1219,0.048759999999999915,5.000378781950543,-0.00019226327513760522,0.0004813141373511713,0
1220,0.048799999999999955,5.000378781950543,0.0004653163810297567,0.0011394066699368256,0
1221,0.048839999999999995,5.000378781950543,-0.0028225818947114484,-0.002147985670459466,0
1222,0.048880000000000035,5.000049991798719,-0.00019226327513760522,0.0004828319398507853,0
1223,0.048920000000000075,5.000049991798719,0.0021092655236763236,0.002784852781285483,0
1224,0.048960000000000115,5.000378781950543,0.0007941062093044515,0.0014701785579396458,0
1225,0.04899999999999993,5.000049991798719,-0.0024937920677107622,-0.001817241583095269,0
1226,0.04903999999999997,5.000049991798719,-0.002165002240582567,-0.0014879805784553553,0
1227,0.04908000000000001,5.000378781950543,-0.0008498429307955274,-0.0001723570530197966,0
1228,0.04912000000000005,5.001036362253937,0.00013652655288240445,0.0008144696810771139,0
1229,0.04916000000000009,5.000049991798719,-0.00019226327513760522,0.0004861301349085357,0
1230,0.04919999999999991,5.001693942556992,-0.0008498429307955274,-0.00017100621077511396,0
1231,0.04923999999999995,4.99972120164681,-0.0008498429307955274,-0.00017056987595915913,0
1232,0.04927999999999999,5.000378781950543,-0.00348016154833046,-0.0028004591370890952,0
1233,0.04932000000000003,5.000049991798719,-0.005124110680146385,-0.004443985894135055,0
1234,0.04936000000000007,5.000707572102282,-0.0031513717215847087,-0.0024708315456338737,0
1235,0.04940000000000011,4.999392411494816,-0.0018362124133269458,-0.001155263835433783,0
1236,0.04943999999999993,5.000049991798719,-0.004137741201439435,-0.0034563912127390938,0
1237,0.04947999999999997,5.000049991798719,-0.0008498429307955274,-0.00016809852553232555,0
1238,0.04952000000000001,5.000378781950543,0.0014516858662357995,0.002133817690737251,0
1239,0.04956000000000005,5.000707572102282,0.0030956350107915753,0.00377814725415529,0
1240,0.04960000000000009,4.999392411494816,-0.0024937920677107622,-0.0018109064088831636,0
1241,0.049639999999999906,5.001036362253937,-0.005781690331979852,-0.0050984382640801166,0
1242,0.049679999999999946,4.99972120164681,-0.0018362124133269458,-0.0011526009457110712,0
1243,0.049719999999999986,5.000049991798719,-0.0024937920677107622,-0.0018098282126698222,0
1244,0.049760000000000026,5.000378781950543,-0.0015074225859438989,-0.0008231133586748336,0
1245,0.049800000000000066,5.001036362253937,0.0007941062093044515,0.0014787537907281145,0
1246,0.049840000000000106,5.000378781950543,-0.001178632758433426,-0.0004936538437759425,0
1247,0.049879999999999924,5.000049991798719,-0.0015074225859438989,-0.0008221193617912411,0
1248,0.049919999999999964,5.000049991798719,-0.002165002240582567,-0.0014793817334617966,0
1249,0.049960000000000004,5.000378781950543,-0.002165002240582567,-0.0014790714797796585,0
1250,0.050000000000000044,5.000049991798719,-0.0047953208540382625,-0.004109086871568537,0
1251,0.050040000000000084,5.000049991798719,-0.0018362124133269458,-0.001149682243905453,0
1252,0.0500799999999999,5.000378781950543,-0.0028225818947114484,-0.002135762575723273,0
1253,0.05011999999999994,5.000378781950543,0.0024380553525874815,0.003125156781116948,0
1254,0.05015999999999998,4.99972120164681,-0.0018362124133269458,-0.0011488359178920785,0
1255,0.05020000000000002,5.000378781950543,-0.0008498429307955274,-0.00016219841367181935,0
1256,0.05024000000000006,5.000049991798719,-0.00348016154833046,-0.0027922560572852233,0
1257,0.0502800000000001,5.000378781950543,-0.0018362124133269458,-0.001148052998648303,0
1258,0.05031999999999992,5.000378781950543,-0.0031513717215847087,-0.0024629654360515726,0
1259,0.05035999999999996,5.000049991798719,-0.0008498429307955274,-0.00016119682964755937,0
1260,0.0504,5.000378781950543,-0.001178632758433426,-0.0004897538993409219,0
1261,0.05044000000000004,5.000049991798719,-0.0018362124133269458,-0.0011471078563606838,0
1262,0.05048000000000008,5.000049991798719,-0.005452900506126915,-0.004763577313727943,0
1263,0.0505199999999999,5.000049991798719,-0.0018362124133269458,-0.0011466776502763285,0
1264,0.05055999999999994,5.000049991798719,-0.003808951374948702,-0.0031192121083371866,0
1265,0.05059999999999998,5.000049991798719,-0.001178632758433426,-0.0004886960576310781,0
1266,0.05064000000000002,5.000049991798719,-0.0015074225859438989,-0.0008172955225696562,0
1267,0.05068000000000006,4.99972120164681,-0.006768059808773,-0.006077749456664187,0
1268,0.0507200000000001,5.000378781950543,-0.0028225818947114484,-0.0021320953298932404,0
1269,0.050759999999999916,5.000049991798719,-0.0015074225859438989,-0.0008167668865987074,0
1270,0.050799999999999956,4.99972120164681,-0.006439269983302923,-0.005748452229739759,0
1271,0.050839999999999996,5.000378781950543,-0.00348016154833046,-0.0027891888229542366,0
1272,0.050880000000000036,5.000707572102282,-0.004466531027802631,-0.003775410415083374,0
1273,0.050920000000000076,5.000378781950543,-0.00808321910937683,-0.0073919576958188585,0
1274,0.050960000000000116,5.001036362253937,0.001122896037706475,0.0018142911635954213,0
1275,0.050999999999999934,4.998406041038327,-0.0018362124133269458,-0.0011446906655872013,0
1276,0.051039999999999974,5.000378781950543,-0.002165002240582567,-0.0014733609634136717,0
1277,0.051080000000000014,5.001036362253937,-0.0047953208540382625,-0.004103567141772278,0
1278,0.051120000000000054,5.000378781950543,0.0014516858662357995,0.0021435449173874913,0
1279,0.051160000000000094,4.99972120164681,-0.0028225818947114484,-0.002130624602733579,0
1280,0.05119999999999991,5.002351522859708,0.00013652655288240445,0.0008285749858099581,0
1281,0.05123999999999995,4.998734831190575,-0.002165002240582567,-0.0014728697683675106,0
1282,0.05127999999999999,4.998406041038327,-0.001178632758433426,-0.0004864233503474385,0
1283,0.05132000000000003,4.998734831190575,-0.0031513717215847087,-0.0024590924827673755,0
1284,0.05136000000000007,5.000049991798719,-0.004466531027802631,-0.0037741890650851385,0
1285,0.05140000000000011,5.000378781950543,-0.00808321910937683,-0.007390821531250489,0
1286,0.05143999999999993,4.999392411494816,-0.005124110680146385,-0.004431664596731107,0
1287,0.05147999999999997,5.000378781950543,-0.005124110680146385,-0.004431623203159076,0
1288,0.05152000000000001,4.99972120164681,-0.0028225818947114484,-0.002130060137434381,0
1289,0.05156000000000005,5.000378781950543,-0.0031513717215847087,-0.002458822798833829,0
1290,0.05160000000000009,5.000049991798719,-0.0005210531030302584,0.0001715158688765397,0
1291,0.05163999999999991,5.000049991798719,0.001122896037706475,0.001815477940981137,0
1292,0.05167999999999995,5.000707572102282,-0.007096849634115457,-0.006404261918699316,0
1293,0.05171999999999999,5.000378781950543,-0.005781690331979852,-0.005089103925055084,0
1294,0.05176000000000003,4.999392411494816,-0.0047953208540382625,-0.004102742877612238,0
1295,0.05180000000000007,5.000049991798719,-0.003808951374948702,-0.0031163889523713392,0
1296,0.05184000000000011,5.000707572102282,-0.0018362124133269458,-0.0011436726692586868,0
1297,0.051879999999999926,5.000378781950543,-0.0008498429307955274,-0.00015733299117526924,0
1298,0.051919999999999966,5.000378781950543,0.0004653163810297567,0.001157789389016765,0
1299,0.051960000000000006,4.99972120164681,-0.00019226327513760522,0.0005001656728167089,0
1300,0.052000000000000046,5.000049991798719,-0.006768059808773,-0.006075682050432822,0
1301,0.052040000000000086,5.000049991798719,-0.0031513717215847087,-0.0024590522835898736,0
1302,0.052079999999999904,5.000049991798719,-0.003808951374948702,-0.0031166973891478622,0
1303,0.052119999999999944,5.000049991798719,-0.0028225818947114484,-0.0021304004940383672,0
1304,0.052159999999999984,5.000049991798719,-0.002165002240582567,-0.0014729005590237221,0
1305,0.052200000000000024,4.99972120164681,-0.0018362124133269458,-0.0011441975858890964,0
1306,0.052240000000000064,5.000049991798719,-0.0018362124133269458,-0.0011442915760046482,0
1307,0.052280000000000104,5.000049991798719,-0.005781690331979852,-0.00508987062172293,0
1308,0.05231999999999992,5.001036362253937,-0.005124110680146385,-0.004432399234827355,0
1309,0.05235999999999996,5.000378781950543,-0.006110480157705198,-0.005418884116086633,0
1310,0.0524,5.000049991798719,-0.0024937920677107622,-0.0018023185694126223,0
1311,0.05244000000000004,5.000378781950543,-0.001178632758433426,-0.000487288943900319,0
1312,0.05248000000000008,5.000707572102282,-0.0024937920677107622,-0.0018025850781791843,0
1313,0.0525199999999999,5.000707572102282,-0.0028225818947114484,-0.002131518872176972,0
1314,0.05255999999999994,5.000049991798719,-0.002165002240582567,-0.0014740903277669726,0
1315,0.05259999999999998,5.000049991798719,-0.0031513717215847087,-0.002460618061903076,0
1316,0.05264000000000002,4.99972120164681,-0.0028225818947114484,-0.0021319936322392015,0
1317,0.05268000000000006,5.000049991798719,-0.002165002240582567,-0.0014745865200224734,0
1318,0.0527200000000001,5.000378781950543,-0.0015074225859438989,-0.0008171865525930199,0
1319,0.05275999999999992,5.000049991798719,-0.0015074225859438989,-0.000817373385660492,0
1320,0.05279999999999996,5.000049991798719,-0.0015074225859438989,-0.0008175673651142772,0
1321,0.05284,5.000049991798719,-0.004466531027802631,-0.0037768769333079754,0
1322,0.05288000000000004,5.000049991798719,-0.007754429284417372,-0.0070649834636005064,0
1323,0.05292000000000008,4.99972120164681,-0.005781690331979852,-0.005092459932611973,0
1324,0.052959999999999896,5.000378781950543,-0.006768059808773,-0.006079051979020366,0
1325,0.052999999999999936,4.99972120164681,-0.004466531027802631,-0.0037777529161932212,0
1326,0.053039999999999976,5.000378781950543,-0.0018362124133269458,-0.0011476711687170493,0
1327,0.053080000000000016,5.000049991798719,-0.001178632758433426,-0.0004903355299742096,0
1328,0.053120000000000056,5.000049991798719,-0.0031513717215847087,-0.002463325658688745,0
1329,0.053160000000000096,5.000049991798719,-0.005452900506126915,-0.004765112758434668,0
1330,0.053199999999999914,5.000049991798719,-0.0031513717215847087,-0.0024638494389309703,0
1331,0.053239999999999954,5.000049991798719,-0.005124110680146385,-0.004436861012526657,0
1332,0.053279999999999994,4.99972120164681,-0.002165002240582567,-0.001478032338119426,0
1333,0.053320000000000034,4.999392411494816,-0.005781690331979852,-0.005095007344889233,0
1334,0.053360000000000074,5.000378781950543,-0.0024937920677107622,-0.0018074031462682295,0
1335,0.053400000000000114,5.000049991798719,-0.003808951374948702,-0.0031228636694556502,0
1336,0.05343999999999993,5.000378781950543,-0.001178632758433426,-0.0004928534191832611,0
1337,0.05347999999999997,5.000049991798719,-0.0015074225859438989,-0.000821958763188154,0
1338,0.05352000000000001,5.000049991798719,-0.004466531027802631,-0.0037813898717170623,0
1339,0.05356000000000005,5.000378781950543,-0.0028225818947114484,-0.002137770555362093,0
1340,0.05360000000000009,5.000049991798719,-0.004466531027802631,-0.003782056655111806,0
1341,0.05363999999999991,5.000378781950543,-0.003808951374948702,-0.0031248211186609897,0
1342,0.05367999999999995,5.000049991798719,-0.0005210531030302584,0.0001627258873215607,0
1343,0.05371999999999999,4.99972120164681,-0.0024937920677107622,-0.0018103714925817066,0
1344,0.05376000000000003,4.999392411494816,-0.004466531027802631,-0.0037834760169031616,0
1345,0.05380000000000007,5.000049991798719,-0.005124110680146385,-0.0044414283821690905,0
1346,0.05384000000000011,5.000378781950543,-0.002165002240582567,-0.0014826998038715736,0
1347,0.05387999999999993,5.000378781950543,-0.0018362124133269458,-0.0011542969858436489,0
1348,0.05391999999999997,5.000707572102282,-0.0024937920677107622,-0.0018122707969995214,0
1349,0.05396000000000001,5.000378781950543,-0.002165002240582567,-0.001483882273736358,0
1350,0.05400000000000005,5.000049991798719,-0.0031513717215847087,-0.0024706602052107338,0
