,seconds,Trig,EMG_amplitude,EMG_amplitude_filter,peaks
0,0.0,5.000378781950543,-0.06331990787873677,-0.0022664773884692804,0
1,4.0000000000040004e-05,5.000378781950543,-0.05444258314375501,0.006591080590711989,0
2,8.000000000008001e-05,5.000378781950543,-0.04161978058197445,0.019394179503711424,0
3,0.00011999999999989797,5.000707572102282,-0.045565258314247556,0.015429061369881703,0
4,0.00015999999999993797,5.000378781950543,-0.047537997173404054,0.013436745496219399,0
5,0.00019999999999997797,5.000378781950543,-0.05049710545340523,0.010458123728209374,0
6,0.00024000000000001798,4.999392411494816,-0.04819557679208804,0.012740202567079403,0
7,0.000280000000000058,5.000378781950543,-0.046880417554202566,0.014035975786761502,0
8,0.000320000000000098,5.000378781950543,-0.04359251945043667,0.017304551814865995,0
9,0.00035999999999991594,5.000707572102282,-0.044907678693494255,0.01597013457660195,0
10,0.00039999999999995595,5.000049991798719,-0.04622283793448369,0.014635781558387566,0
11,0.00043999999999999595,5.000378781950543,-0.030769716722423582,0.030069773348343085,0
12,0.00048000000000003595,5.000378781950543,-0.05805927101017365,0.002761154130358736,0
13,0.000520000000000076,5.000049991798719,-0.047537997173404054,0.013263427665123936,0
14,0.0005599999999998939,5.000049991798719,-0.05115468506975916,0.009627804230962534,0
15,0.0005999999999999339,5.000049991798719,-0.025180289830972882,0.03558332883171605,0
16,0.0006399999999999739,5.000378781950543,-0.04589404812443025,0.014850764935181015,0
17,0.0006800000000000139,5.000707572102282,-0.04523646850393555,0.015489604122339469,0
18,0.0007200000000000539,5.000378781950543,-0.04425009907222392,0.016457298424846348,0
19,0.0007600000000000939,5.000378781950543,-0.04523646850393555,0.015452319302054013,0
20,0.0007999999999999119,4.99972120164681,-0.045565258314247556,0.015104985372379063,0
21,0.0008399999999999519,5.000707572102282,-0.04852436660123595,0.01212739867093917,0
22,0.0008799999999999919,5.000049991798719,-0.06825175491278114,-0.007618402217353647,0
23,0.0009200000000000319,5.000049991798719,-0.0820609264520449,-0.02144592036327126,0
24,0.0009600000000000719,5.000378781950543,-0.08337608563423975,-0.022779360050039946,0
25,0.001000000000000112,4.99972120164681,-0.06562143649826817,-0.005042925184980729,0
26,0.0010399999999999299,4.99972120164681,-0.045565258314247556,0.014995105092964391,0
27,0.0010799999999999699,5.000049991798719,-0.0340576148765004,0.026484667120241064,0
28,0.0011200000000000099,5.000378781950543,-0.03603035376276496,0.02449391344947064,0
29,0.0011600000000000499,5.000049991798719,-0.044907678693494255,0.015598640490150001,0
30,0.0012000000000000899,5.000378781950543,-0.057730481204784426,0.0027579568357219905,0
31,0.0012399999999999078,5.000378781950543,-0.058716850620562686,0.0017537732913862174,0
32,0.0012799999999999478,5.000378781950543,-0.05510016275699865,0.005352714169686652,0
33,0.0013199999999999878,5.000707572102282,-0.04720920736386795,0.013225989849146812,0
34,0.0013600000000000279,4.99972120164681,-0.04030462133375036,0.020112963565070523,0
35,0.0014000000000000679,5.000049991798719,-0.0445788888829237,0.015821151228646767,0
36,0.0014400000000001079,5.000049991798719,-0.0498395258365333,0.0105430371417791,0
37,0.0014799999999999258,4.99972120164681,-0.05444258314375501,0.005922570481921394,0
38,0.0015199999999999658,5.000378781950543,-0.05378500352999273,0.006562808649879386,0
39,0.0015600000000000058,5.000049991798719,-0.05181226468559495,0.008518274081092875,0
40,0.0016000000000000458,5.000378781950543,-0.05181226468559495,0.008501068825894503,0
41,0.0016400000000000858,5.000049991798719,-0.06200474866471477,-0.001708552125495472,0
42,0.0016799999999999038,5.000049991798719,-0.05082589526164695,0.009453232712747901,0
43,0.0017199999999999438,5.000707572102282,-0.047537997173404054,0.012724130767703762,0
44,0.0017599999999999838,5.000707572102282,-0.03964704170886384,0.02059815485415906,0
45,0.0018000000000000238,4.99972120164681,-0.028139398189897927,0.032088935773478745,0
46,0.0018400000000000638,5.000378781950543,-0.028796977823800904,0.03141456244117558,0
47,0.0018800000000001038,5.000049991798719,-0.03471519450577058,0.025479621084428652,0
48,0.0019199999999999218,5.000049991798719,-0.05510016275699865,0.005077997303991652,0
49,0.0019599999999999618,5.000378781950543,-0.06956691411691203,-0.009405340318049599,0
50,0.0020000000000000018,4.99972120164681,-0.06759417530993413,-0.007449118385039509,0
51,0.0020400000000000418,4.99972120164681,-0.04260615001678679,0.017522459542944256,0
52,0.002080000000000082,5.000378781950543,-0.0445788888829237,0.015533342940656284,0
53,0.0021199999999998997,5.000049991798719,-0.04096220095812057,0.019133722878092015,0
54,0.0021599999999999397,5.000378781950543,-0.04194857039370768,0.01813111532325414,0
55,0.0021999999999999797,4.999392411494816,-0.03931825189622702,0.020745265688494354,0
56,0.0022400000000000198,5.000378781950543,-0.03438640469119987,0.025661014866744637,0
57,0.0022800000000000598,5.000378781950543,-0.029125767640559533,0.03090562411408343,0
58,0.0023200000000000998,5.000378781950543,-0.027481818555480722,0.03253361573690514,0
59,0.0023599999999999177,5.000378781950543,-0.035701563948709644,0.024297983339589043,0
60,0.0023999999999999577,5.000049991798719,-0.035043984320212454,0.024939746538849655,0
61,0.0024399999999999977,4.99972120164681,-0.03438640469119987,0.02558158042971097,0
62,0.0024800000000000377,5.000049991798719,-0.03603035376276496,0.02392195642686759,0
63,0.0025200000000000777,5.000378781950543,-0.023536340738185738,0.036400365442381004,0
64,0.0025599999999998957,5.000049991798719,-0.037016723204157484,0.02290445000444622,0
65,0.0025999999999999357,5.000049991798719,-0.04951073602790314,0.010394975360280318,0
66,0.0026399999999999757,5.000049991798719,-0.03603035376276496,0.023859967070529786,0
67,0.0026800000000000157,5.000049991798719,-0.03800309264438971,0.021871909013084313,0
68,0.0027200000000000557,5.000049991798719,-0.037016723204157484,0.022843030769646794,0
69,0.0027600000000000957,4.99972120164681,-0.03635914357669136,0.023485434318222666,0
70,0.0027999999999999137,5.000049991798719,-0.029783347273691016,0.030046126259285242,0
71,0.0028399999999999537,5.000707572102282,-0.025837869467188898,0.03397657153251852,0
72,0.0028799999999999937,5.001036362253937,-0.042277360205311795,0.017522120201054616,0
73,0.0029200000000000337,5.000049991798719,-0.03734551301769716,0.022439078846056268,0
74,0.0029600000000000737,5.000378781950543,-0.031756086169998185,0.028013689312210852,0
75,0.0029999999999998916,5.000049991798719,-0.026824238920549456,0.03293079245106366,0
76,0.0030399999999999316,5.000707572102282,-0.02090602218305261,0.03883433745833121,0
77,0.0030799999999999716,5.000707572102282,-0.024851500012672237,0.034874260387804314,0
78,0.0031200000000000117,5.000378781950543,-0.03274245561641449,0.02696877814096844,0
79,0.0031600000000000517,5.000378781950543,-0.0340576148765004,0.025639164943629472,0
80,0.0032000000000000917,5.000378781950543,-0.0340576148765004,0.025624783819778132,0
81,0.0032399999999999096,5.000378781950543,-0.04063341114600001,0.019034679346923187,0
82,0.0032799999999999496,5.000049991798719,-0.023536340738185738,0.03611751457850455,0
83,0.0033199999999999896,5.000049991798719,-0.028796977823800904,0.030842715449936574,0
84,0.0033600000000000296,5.001036362253937,-0.029454557457189598,0.030171047012562978,0
85,0.0034000000000000696,5.000707572102282,-0.03438640469119987,0.025225184318752796,0
86,0.0034400000000001096,5.000707572102282,-0.0340576148765004,0.02554003212258262,0
87,0.0034799999999999276,4.99972120164681,-0.029454557457189598,0.030129221084226613,0
88,0.0035199999999999676,5.000049991798719,-0.026166659285104213,0.033403324455646935,0
89,0.0035600000000000076,4.99972120164681,-0.03208487598559902,0.02747138671481296,0
90,0.0036000000000000476,5.000378781950543,-0.03438640469119987,0.02515621083204731,0
91,0.0036400000000000876,4.99972120164681,-0.01860449344057817,0.04092454887105045,0
92,0.0036799999999999056,5.000378781950543,-0.03800309264438971,0.021512450523060892,0
93,0.0037199999999999456,5.000049991798719,-0.03372882506167206,0.02577329313045668,0
94,0.0037599999999999856,5.000049991798719,-0.026824238920549456,0.03266452856604963,0
95,0.0038000000000000256,5.000378781950543,-0.024851500012672237,0.03462399113864491,0
96,0.0038400000000000656,5.000049991798719,-0.02781060837275358,0.03165168091350329,0
97,0.0038800000000001056,5.000049991798719,-0.03603035376276496,0.023418808228144804,0
98,0.0039199999999999235,5.000049991798719,-0.0340576148765004,0.0253784944877835,0
99,0.0039599999999999635,5.000378781950543,-0.03438640469119987,0.02503672681370311,0
100,0.0040000000000000036,5.000049991798719,-0.033071245431629134,0.026338983079176342,0
101,0.0040400000000000436,5.001036362253937,-0.03208487598559902,0.027312524493944706,0
102,0.0040800000000000836,5.000049991798719,-0.024193920375685754,0.035190727132497254,0
103,0.0041199999999999015,5.000707572102282,-0.03044092690630805,0.028931042786992614,0
104,0.0041599999999999415,5.000378781950543,-0.03734551301769716,0.022013854113287844,0
105,0.0041999999999999815,5.001036362253937,-0.035701563948709644,0.023645275968124747,0
106,0.0042400000000000215,5.000378781950543,-0.03241366580107112,0.026920722344885233,0
107,0.0042800000000000615,5.000049991798719,-0.029783347273691016,0.02953866463927559,0
108,0.0043200000000001015,5.000707572102282,-0.028139398189897927,0.031170313122090253,0
109,0.0043599999999999195,5.000049991798719,-0.03274245561641449,0.026555030820236088,0
110,0.0043999999999999595,5.000049991798719,-0.03603035376276496,0.023254983617323845,0
111,0.0044399999999999995,4.99972120164681,-0.03668793339048888,0.02258533084445368,0
112,0.0044800000000000395,5.000049991798719,-0.03734551301769716,0.021915754075658163,0
113,0.0045200000000000795,5.000049991798719,-0.030769716722423582,0.028479629324549855,0
114,0.0045599999999998975,5.000049991798719,-0.02715302873807933,0.03208447244886599,0
115,0.0045999999999999375,5.000707572102282,-0.03372882506167206,0.025496907542248492,0
116,0.0046399999999999775,5.000378781950543,-0.04096220095812057,0.01825183942992844,0
117,0.0046800000000000175,5.000378781950543,-0.03800309264438971,0.021199331984590244,0
118,0.0047200000000000575,5.000049991798719,-0.03438640469119987,0.02480448072466131,0
119,0.0047600000000000975,5.000049991798719,-0.028796977823800904,0.03038244501353727,0
120,0.0047999999999999154,4.99972120164681,-0.029125767640559533,0.030042269340993764,0
121,0.0048399999999999554,5.000378781950543,-0.033071245431629134,0.026085482504515815,0
122,0.0048799999999999955,5.000378781950543,-0.027481818555480722,0.03166367723276604,0
123,0.0049200000000000355,5.000049991798719,-0.0389894620834612,0.0201448785410256,0
124,0.0049600000000000755,5.000049991798719,-0.03208487598559902,0.027038386545387656,0
125,0.004999999999999893,4.99972120164681,-0.028468188006913683,0.03064407358644706,0
126,0.005039999999999933,4.99972120164681,-0.028468188006913683,0.030633149889801557,0
127,0.005079999999999973,4.99972120164681,-0.028139398189897927,0.030951093335749563,0
128,0.005120000000000013,5.000049991798719,-0.03734551301769716,0.02173420954654796,0
129,0.005160000000000053,4.99972120164681,-0.04129099077011207,0.017778040325973195,0
130,0.0052000000000000934,4.99972120164681,-0.03931825189622702,0.019740165308006714,0
131,0.005239999999999911,4.999392411494816,-0.031756086169998185,0.027291794801246008,0
132,0.005279999999999951,5.000049991798719,-0.01991965272276132,0.03911776975639604,0
133,0.005319999999999991,4.999392411494816,-0.028139398189897927,0.030887643619602265,0
134,0.005360000000000031,4.999392411494816,-0.03274245561641449,0.026274283426870625,0
135,0.005400000000000071,4.99972120164681,-0.03668793339048888,0.022318580870520372,0
136,0.005440000000000111,5.000378781950543,-0.037016723204157484,0.021979644338496137,0
137,0.005479999999999929,5.001036362253937,-0.033071245431629134,0.025915053536053202,0
138,0.005519999999999969,5.000378781950543,-0.03274245561641449,0.02623385299862741,0
139,0.005560000000000009,5.001036362253937,-0.027481818555480722,0.03148457800767965,0
140,0.005600000000000049,4.999063621342738,-0.03208487598559902,0.02687168690434762,0
141,0.005640000000000089,5.001036362253937,-0.02715302873807933,0.03179377893471022,0
142,0.005679999999999907,5.000378781950543,-0.028139398189897927,0.03079773279865927,0
143,0.005719999999999947,4.997419670581074,-0.03241366580107112,0.026513867112525007,0
144,0.005759999999999987,5.001036362253937,-0.031098506538410467,0.02781950698532018,0
145,0.005800000000000027,4.998406041038327,-0.029125767640559533,0.02978280525370259,0
146,0.005840000000000067,4.99972120164681,-0.03767430283110791,0.021224908268860355,0
147,0.005880000000000107,5.000378781950543,-0.03471519450577058,0.02417473370933185,0
148,0.005919999999999925,4.998406041038327,-0.0383318824575425,0.020548841855850375,0
149,0.005959999999999965,4.997748460733576,-0.03274245561641449,0.02612914385162749,0
150,0.006000000000000005,4.999063621342738,-0.029783347273691016,0.029079206478034546,0
151,0.006040000000000045,4.99972120164681,-0.021563601822605624,0.03728998541398647,0
152,0.006080000000000085,4.998734831190575,-0.03603035376276496,0.02281434623149714,0
153,0.006119999999999903,5.000707572102282,-0.031756086169998185,0.027079805925829148,0
154,0.006159999999999943,5.000378781950543,-0.037016723204157484,0.02181044040769266,0
155,0.006199999999999983,4.99972120164681,-0.03274245561641449,0.026076058995948295,0
156,0.006240000000000023,5.000707572102282,-0.03372882506167206,0.02508112010519473,0
157,0.006280000000000063,4.999392411494816,-0.029783347273691016,0.02901810807064124,0
158,0.006320000000000103,5.000378781950543,-0.03142729635426868,0.027365748858928507,0
159,0.006359999999999921,5.000049991798719,-0.03635914357669136,0.022425571264675436,0
160,0.006399999999999961,5.000378781950543,-0.03668793339048888,0.022088530905723987,0
161,0.006440000000000001,5.000378781950543,-0.031098506538410467,0.02766978710616262,0
162,0.006480000000000041,5.000378781950543,-0.04063341114600001,0.018126791806750336,0
163,0.006520000000000081,4.99972120164681,-0.026824238920549456,0.03192795336596259,0
164,0.006559999999999899,5.000378781950543,-0.03142729635426868,0.027316965356820842,0
165,0.006599999999999939,5.000378781950543,-0.035043984320212454,0.02369242697096493,0
166,0.006639999999999979,5.000049991798719,-0.03734551301769716,0.02138312807323578,0
167,0.006680000000000019,5.000378781950543,-0.03767430283110791,0.021046648342867576,0
168,0.006720000000000059,5.000378781950543,-0.033071245431629134,0.025642096171756598,0
169,0.006760000000000099,4.99972120164681,-0.03208487598559902,0.026620936456106168,0
170,0.006799999999999917,5.000049991798719,-0.029783347273691016,0.028915016477244457,0
171,0.006839999999999957,5.000378781950543,-0.03471519450577058,0.0239758010867672,0
172,0.006879999999999997,5.000378781950543,-0.03274245561641449,0.025941252411017624,0
173,0.006920000000000037,4.99972120164681,-0.03274245561641449,0.02593404549958217,0
174,0.006960000000000077,5.000378781950543,-0.029454557457189598,0.029214817460877552,0
175,0.006999999999999895,4.99972120164681,-0.028796977823800904,0.02986535166913536,0
176,0.007039999999999935,4.999063621342738,-0.03142729635426868,0.02722806854508429,0
177,0.007079999999999975,5.000049991798719,-0.03274245561641449,0.025906025579107442,0
178,0.007120000000000015,5.000049991798719,-0.03800309264438971,0.020638585794713206,0
179,0.007160000000000055,5.000049991798719,-0.03603035376276496,0.022604602924445237,0
180,0.007200000000000095,4.99972120164681,-0.035043984320212454,0.02358433167619957,0
181,0.007239999999999913,5.000049991798719,-0.026495449102891075,0.032126307319838884,0
182,0.007279999999999953,5.000378781950543,-0.026824238920549456,0.03179103910108893,0
183,0.007319999999999993,5.000378781950543,-0.028468188006913683,0.03014069284115025,0
184,0.007360000000000033,4.99972120164681,-0.03274245561641449,0.025860109339970398,0
185,0.007400000000000073,5.000049991798719,-0.03372882506167206,0.024867505338758582,0
186,0.007440000000000113,4.99972120164681,-0.03931825189622702,0.0192719253372542,0
187,0.007479999999999931,5.000049991798719,-0.03340003524671499,0.025184070261551728,0
188,0.007519999999999971,5.000049991798719,-0.03471519450577058,0.02386292077119621,0
189,0.007560000000000011,5.000049991798719,-0.035372774134525484,0.023199432456684602,0
190,0.007600000000000051,5.000378781950543,-0.03340003524671499,0.025166344255358793,0
191,0.007640000000000091,5.000049991798719,-0.035372774134525484,0.02318785992555763,0
192,0.007679999999999909,4.99972120164681,-0.028796977823800904,0.02975799249140987,0
193,0.007719999999999949,5.000378781950543,-0.03471519450577058,0.02383419381110595,0
194,0.007759999999999989,5.000049991798719,-0.03044092690630805,0.028102961207638534,0
195,0.007800000000000029,5.000049991798719,-0.02320755091924319,0.03533091883549,0
196,0.00784000000000007,5.001036362253937,-0.020577232363083744,0.03795590092391043,0
197,0.00788000000000011,5.000378781950543,-0.020248442542986647,0.038279436214945804,0
198,0.007919999999999927,5.000049991798719,-0.015316595226152155,0.043206110988043445,0
199,0.007959999999999967,4.99972120164681,-0.010384747880516562,0.04813286782135884,0
200,0.008000000000000007,4.99972120164681,-0.013343856291351444,0.04516875097515591,0
201,0.008040000000000047,5.001036362253937,-0.01301506646843685,0.04549261448463329,0
202,0.008080000000000087,4.99972120164681,-0.01564538504817102,0.04285745175781419,0
203,0.008119999999999905,5.000378781950543,-0.012028696998925656,0.04646937787019066,0
204,0.008159999999999945,5.000707572102282,-0.01597417487006185,0.04251922031570727,0
205,0.008199999999999985,5.000378781950543,-0.0116999071754995,0.04678889062319122,0
206,0.008240000000000025,4.99972120164681,-0.012028696998925656,0.04645558575114367,0
207,0.008280000000000065,5.000378781950543,-0.018275703619711994,0.04020414646182179,0
208,0.008320000000000105,5.000049991798719,-0.022549971280973066,0.03592552855318009,0
209,0.008359999999999923,5.000378781950543,-0.0228787611001723,0.035592470948263996,0
210,0.008399999999999963,4.99972120164681,-0.022221181461645576,0.03624586530268586,0
211,0.008440000000000003,4.99972120164681,-0.024522710194243194,0.033940233826982594,0
212,0.008480000000000043,5.000049991798719,-0.00808321910937683,0.050375704748568284,0
213,0.008520000000000083,5.000707572102282,-0.024193920375685754,0.034261065937067646,0
214,0.008559999999999901,5.000049991798719,-0.021234812002893247,0.03721631942045908,0
215,0.008599999999999941,5.000049991798719,-0.0113711173519455,0.04707624187493556,0
216,0.008639999999999981,5.000378781950543,0.0024380553525874815,0.06088172511250334,0
217,0.008680000000000021,5.000049991798719,0.004410794328726292,0.06285085738719595,0
218,0.008720000000000061,4.99972120164681,-0.005452900506126915,0.05298363865186474,0
219,0.008760000000000101,4.99972120164681,-0.021234812002893247,0.03719828609047366,0
220,0.008799999999999919,4.99972120164681,-0.0228787611001723,0.035550978798743554,0
221,0.008839999999999959,5.000049991798719,-0.014001435936796827,0.044425028671597096,0
222,0.008879999999999999,5.000049991798719,-0.00348016154833046,0.05494311070666074,0
223,0.008920000000000039,5.000707572102282,0.02117907581044083,0.07959923868177285,0
224,0.008960000000000079,5.000378781950543,0.018548757124844717,0.07696589361431944,0
225,0.008999999999999897,4.99972120164681,0.0004653163810297567,0.05887950952194097,0
226,0.009039999999999937,4.999392411494816,-0.010055958056451306,0.04835537480011533,0
227,0.009079999999999977,5.000378781950543,-0.02090602218305261,0.03750253348374637,0
228,0.009120000000000017,5.000378781950543,-0.023536340738185738,0.03486952086321307,0
229,0.009160000000000057,5.000378781950543,-0.022549971280973066,0.03585327940861589,0
230,0.009200000000000097,5.000049991798719,-0.01696054433496612,0.0414401786250581,0
231,0.009239999999999915,4.99972120164681,-0.007096849634115457,0.05130142880667558,0
232,0.009279999999999955,4.999392411494816,-0.0047953208540382625,0.05360059630536905,0
233,0.009319999999999995,5.000378781950543,-0.008412008934208556,0.04998163020861353,0
234,0.009360000000000035,5.000378781950543,-0.006439269983302923,0.05195217443411239,0
235,0.009400000000000075,5.000378781950543,-0.012028696998925656,0.04636063601007195,0
236,0.009439999999999893,5.001036362253937,-0.00939837840793746,0.04898892653487246,0
237,0.009479999999999933,5.000378781950543,-0.015316595226152155,0.043068765017371155,0
238,0.009519999999999973,5.000049991798719,-0.013672646114138112,0.04471085282110052,0
239,0.009560000000000013,5.000049991798719,-0.014987805404005308,0.04339391563748103,0
240,0.009600000000000053,5.000707572102282,-0.012686276645394332,0.045693749939831795,0
241,0.009640000000000093,4.999392411494816,-0.010384747880516562,0.047993667708330204,0
242,0.009679999999999911,5.000049991798719,-0.010713537704454032,0.04766335036971182,0
243,0.009719999999999951,5.000378781950543,-0.0090695885834889,0.04930585547894069,0
244,0.009759999999999991,4.99972120164681,-0.0090695885834889,0.04930449499082372,0
245,0.009800000000000031,4.99972120164681,-0.010055958056451306,0.04831684857346645,0
246,0.009840000000000071,4.99972120164681,-0.01630296469182467,0.04206864855695111,0
247,0.009880000000000111,5.000378781950543,-0.020577232363083744,0.03779327108676139,0
248,0.009919999999999929,5.000378781950543,-0.02320755091924319,0.03516192633226853,0
249,0.009959999999999969,5.000378781950543,-0.012686276645394332,0.04568225802619425,0
250,0.010000000000000009,5.000049991798719,-0.002165002240582567,0.05620267348673326,0
251,0.010040000000000049,5.000049991798719,-0.006439269983302923,0.05192763045205741,0
252,0.010080000000000089,5.000378781950543,-0.01597417487006185,0.04239203394175367,0
253,0.010119999999999907,4.99972120164681,-0.03044092690630805,0.027924673965893147,0
254,0.010159999999999947,4.999392411494816,-0.025837869467188898,0.03252720716427453,0
255,0.010199999999999987,5.000378781950543,-0.02090602218305261,0.03745861392092179,0
256,0.010240000000000027,5.000049991798719,-0.022221181461645576,0.03614309784188664,0
257,0.010280000000000067,5.000049991798719,-0.01926207308192608,0.03910193316143455,0
258,0.010320000000000107,4.99972120164681,0.01328811977796078,0.07165193671406966,0
259,0.010359999999999925,5.000378781950543,0.03465945920099257,0.09302317059484409,1
260,0.010399999999999965,4.99972120164681,0.02117907581044083,0.07954276543852894,0
261,0.010440000000000005,4.99972120164681,-0.006110480157705198,0.052253271492037845,0
262,0.010480000000000045,5.000378781950543,-0.021234812002893247,0.03712908546627222,0
263,0.010520000000000085,5.000049991798719,-0.01991965272276132,0.03844447437336794,0
264,0.010559999999999903,5.000049991798719,-0.018933283261316228,0.03943115727851666,0
265,0.010599999999999943,5.000378781950543,-0.021892391642189743,0.03647244616670952,0
266,0.010639999999999983,5.000049991798719,-0.022549971280973066,0.03581534763040253,0
267,0.010680000000000023,4.99972120164681,-0.021563601822605624,0.036802282032127695,0
268,0.010720000000000063,5.000049991798719,-0.0228787611001723,0.03548777154569563,0
269,0.010760000000000103,5.000049991798719,-0.02320755091924319,0.035159714371855666,0
270,0.01079999999999992,4.99972120164681,-0.026495449102891075,0.031872632693278266,0
271,0.01083999999999996,5.000378781950543,-0.02090602218305261,0.03746295998319371,0
272,0.01088,5.000049991798719,-0.0166317545134594,0.041738211892461005,0
273,0.01092000000000004,5.001036362253937,-0.019590862902407788,0.03878017161679799,0
274,0.01096000000000008,5.000378781950543,-0.01926207308192608,0.03911011342761401,0
275,0.010999999999999899,4.999392411494816,-0.020577232363083744,0.03779619001670062,0
276,0.011039999999999939,5.000049991798719,-0.020577232363083744,0.037797509769139245,0
277,0.011079999999999979,5.000378781950543,-0.026495449102891075,0.03188069666567253,0
278,0.011120000000000019,5.000049991798719,-0.028139398189897927,0.030238235100039076,0
279,0.011160000000000059,5.000049991798719,-0.026495449102891075,0.03188375559400609,0
280,0.011200000000000099,5.000049991798719,-0.026166659285104213,0.03221420070431688,0
281,0.011239999999999917,5.000049991798719,-0.02320755091924319,0.035175048247665666,0
282,0.011279999999999957,5.000378781950543,-0.022549971280973066,0.03583445094721038,0
283,0.011319999999999997,5.000378781950543,-0.035043984320212454,0.02334234485127831,0
284,0.011360000000000037,5.000049991798719,-0.025837869467188898,0.032550450527310516,0
285,0.011400000000000077,5.000049991798719,-0.022221181461645576,0.036169213232655165,0
286,0.011439999999999895,4.99972120164681,-0.023865130556999917,0.03452742271040876,0
287,0.011479999999999935,5.000378781950543,-0.029454557457189598,0.028940238252570225,0
288,0.011519999999999975,5.000049991798719,-0.030112137090063842,0.028284984926649555,0
289,0.011560000000000015,5.000049991798719,-0.030112137090063842,0.02828739509298746,0
290,0.011600000000000055,4.999392411494816,-0.029454557457189598,0.028947468745788477,0
291,0.011640000000000095,5.000049991798719,-0.029454557457189598,0.028950046612931213,0
292,0.011679999999999913,5.000378781950543,-0.03142729635426868,0.026979969423260447,0
293,0.011719999999999953,5.000049991798719,-0.03241366580107112,0.025996345516603996,0
294,0.011759999999999993,5.000049991798719,-0.028796977823800904,0.02961586285865245,0
295,0.011800000000000033,4.999063621342738,-0.026495449102891075,0.031920304760289876,0
296,0.011840000000000073,5.000049991798719,-0.027481818555480722,0.030936932295116876,0
297,0.011880000000000113,5.000378781950543,-0.02320755091924319,0.03521428071562241,0
298,0.01191999999999993,5.000378781950543,-0.026495449102891075,0.03192954710267881,0
299,0.01195999999999997,5.000049991798719,-0.029454557457189598,0.028973687094528494,0
300,0.01200000000000001,5.000049991798719,-0.031098506538410467,0.027333070123330205,0
301,0.01204000000000005,5.000378781950543,-0.03142729635426868,0.027007696169222203,0
302,0.01208000000000009,5.000378781950543,-0.029125767640559533,0.029312724483685333,0
303,0.012119999999999909,5.000049991798719,-0.02781060837275358,0.030631467077948057,0
304,0.012159999999999949,5.000378781950543,-0.029783347273691016,0.02866239521529216,0
305,0.012199999999999989,4.99972120164681,-0.028796977823800904,0.029652515400833548,0
306,0.012240000000000029,5.000378781950543,-0.030112137090063842,0.028341190552559674,0
307,0.012280000000000069,5.000049991798719,-0.03142729635426868,0.027029949373072924,0
308,0.012320000000000109,5.000049991798719,-0.03274245561641449,0.02571879184618878,0
309,0.012359999999999927,4.99972120164681,-0.03471519450577058,0.023750138325875962,0
310,0.012399999999999967,5.000378781950543,-0.037016723204157484,0.021452778612975565,0
311,0.012440000000000007,5.000049991798719,-0.03603035376276496,0.022443400638383168,0
312,0.012480000000000047,5.000049991798719,-0.035043984320212454,0.023434106244988564,0
313,0.012520000000000087,4.99972120164681,-0.03635914357669136,0.022123366713533543,0
314,0.012559999999999905,4.99972120164681,-0.04161978058197445,0.016867232974602693,0
315,0.012599999999999945,5.000049991798719,-0.03603035376276496,0.022461246581274352,0
316,0.012639999999999985,4.99972120164681,-0.035372774134525484,0.023123496497291937,0
317,0.012680000000000025,5.000049991798719,-0.03142729635426868,0.027073728044273295,0
318,0.012720000000000065,4.99972120164681,-0.03340003524671499,0.02510582637555321,0
319,0.012760000000000105,5.000707572102282,-0.03372882506167206,0.02478195721880411,0
320,0.012799999999999923,5.000378781950543,-0.03964704170886384,0.01886874464120708,0
321,0.012839999999999963,5.000049991798719,-0.03866067227056637,0.019860201536816238,0
322,0.012880000000000003,5.000378781950543,-0.0389894620834612,0.019536582544705527,0
323,0.012920000000000043,5.000378781950543,-0.03372882506167206,0.024802473725932125,0
324,0.012960000000000083,5.000049991798719,-0.031098506538410467,0.027438129721891105,0
325,0.0129999999999999,5.000378781950543,-0.03471519450577058,0.02382686251452072,0
326,0.01303999999999994,5.000049991798719,-0.03438640469119987,0.024161156349831923,0
327,0.01307999999999998,4.99972120164681,-0.03866067227056637,0.019892476024841323,0
328,0.01312000000000002,5.000049991798719,-0.03931825189622702,0.019240566859503046,0
329,0.01316000000000006,5.000049991798719,-0.0389894620834612,0.019575110310275395,0
330,0.0132000000000001,5.000378781950543,-0.037016723204157484,0.021553685976434298,0
331,0.013239999999999919,4.99972120164681,-0.03635914357669136,0.02221718551019585,0
332,0.013279999999999959,5.000049991798719,-0.03964704170886384,0.018935290373777926,0
333,0.013319999999999999,4.99972120164681,-0.023536340738185738,0.03505207739911616,0
334,0.013360000000000039,5.000378781950543,-0.04129099077011207,0.01730359644962974,0
335,0.013400000000000079,4.99972120164681,-0.03800309264438971,0.02059774665387385,0
336,0.013439999999999896,4.99972120164681,-0.03800309264438971,0.02060408169620777,0
337,0.013479999999999936,5.000378781950543,-0.037016723204157484,0.021596869109744805,0
338,0.013519999999999976,4.99972120164681,-0.03931825189622702,0.019301841288538513,0
339,0.013560000000000016,5.000378781950543,-0.04096220095812057,0.017664475961083233,0
340,0.013600000000000056,5.000378781950543,-0.04030462133375036,0.018328722148912575,0
341,0.013640000000000096,5.000378781950543,-0.04392130926139491,0.01471878357862337,0
342,0.013679999999999914,5.000049991798719,-0.03866067227056637,0.01998625268500858,0
343,0.013719999999999954,5.000049991798719,-0.03734551301769716,0.021308326775370996,0
344,0.013759999999999994,5.000378781950543,-0.028139398189897927,0.030521439125765448,0
345,0.013800000000000034,4.99972120164681,-0.04293493982813261,0.01573297765782415,0
346,0.013840000000000074,5.001036362253937,-0.03734551301769716,0.02132956724827807,0
347,0.013879999999999892,4.99972120164681,-0.04030462133375036,0.018377704283426534,0
348,0.013919999999999932,4.99972120164681,-0.04161978058197445,0.01706987291847685,0
349,0.013959999999999972,5.000049991798719,-0.03767430283110791,0.021022761045011825,0
350,0.014000000000000012,4.999063621342738,-0.04260615001678679,0.01609840668714882,0
351,0.014040000000000052,5.000378781950543,-0.04786678698281073,0.010845344960273985,0
352,0.014080000000000092,5.002351522859708,-0.047537997173404054,0.011181792378781565,0
353,0.01411999999999991,4.999063621342738,-0.033071245431629134,0.025656284057660808,0
354,0.01415999999999995,4.9970908804284875,-0.04786678698281073,0.010868564729071994,0
355,0.01419999999999999,5.000378781950543,-0.03866067227056637,0.020082583906316284,0
356,0.01424000000000003,5.001365152405508,-0.035372774134525484,0.023378468706117036,0
357,0.01428000000000007,4.99610450997022,-0.03372882506167206,0.025030486597277433,0
358,0.01432000000000011,5.000049991798719,-0.04096220095812057,0.017805261628904896,0
359,0.014359999999999928,5.001036362253937,-0.04392130926139491,0.014854386318132434,0
360,0.014399999999999968,4.99972120164681,-0.04359251945043667,0.015191491140110779,0
361,0.014440000000000008,4.999392411494816,-0.03931825189622702,0.019474155677386886,0
362,0.014480000000000048,5.000049991798719,-0.04030462133375036,0.018496265147940692,0
363,0.014520000000000088,5.000378781950543,-0.05575774236972354,0.0030517048974562505,0
364,0.014559999999999906,4.999063621342738,-0.0491819462191435,0.00963614366277444,0
365,0.014599999999999946,5.000049991798719,-0.045565258314247556,0.01326155596293313,0
366,0.014639999999999986,5.000049991798719,-0.03767430283110791,0.02116131757257301,0
367,0.014680000000000026,5.000378781950543,-0.035043984320212454,0.0238005238913573,0
368,0.014720000000000066,5.000049991798719,-0.033071245431629134,0.02578223221880769,0
369,0.014760000000000106,5.000049991798719,-0.03603035376276496,0.022832174906545835,0
370,0.014799999999999924,5.000049991798719,-0.04260615001678679,0.016265511199872837,0
371,0.014839999999999964,4.99972120164681,-0.0445788888829237,0.014301986357467385,0
372,0.014880000000000004,5.000049991798719,-0.04326372963934923,0.015626441048503983,0
373,0.014920000000000044,5.000049991798719,-0.04161978058197445,0.01727976692386022,0
374,0.014960000000000084,4.99972120164681,-0.039975831521371616,0.01893317411919364,0
375,0.014999999999999902,5.000378781950543,-0.04359251945043667,0.01532602558727953,0
376,0.015039999999999942,5.000049991798719,-0.04096220095812057,0.01796596468428007,0
377,0.015079999999999982,5.000378781950543,-0.03964704170886384,0.019290825690310275,0
378,0.015120000000000022,5.000049991798719,-0.03800309264438971,0.020944557607645315,0
379,0.015160000000000062,4.999392411494816,-0.035701563948709644,0.02325595019571546,0
380,0.015200000000000102,5.000378781950543,-0.03734551301769716,0.02162194600153274,0
381,0.01523999999999992,4.99972120164681,-0.039975831521371616,0.01900165329740759,0
382,0.01527999999999996,4.999392411494816,-0.04622283793448369,0.012764753550363911,0
383,0.01532,5.000049991798719,-0.04852436660123595,0.010473412357418999,0
384,0.01536000000000004,5.000378781950543,-0.037016723204157484,0.021991323976709387,0
385,0.01540000000000008,4.99972120164681,-0.04425009907222392,0.014768297019371317,0
386,0.015439999999999898,5.000049991798719,-0.039975831521371616,0.01905299410902697,0
387,0.015479999999999938,5.000378781950543,-0.04161978058197445,0.01741955515430823,0
388,0.015519999999999978,5.000049991798719,-0.0445788888829237,0.01447103746477732,0
389,0.015560000000000018,4.99972120164681,-0.04622283793448369,0.012837759468071724,0
390,0.015600000000000058,5.000049991798719,-0.04720920736386795,0.01186214147432832,0
391,0.0156400000000001,4.99972120164681,-0.04161978058197445,0.017462400009448698,0
392,0.015679999999999916,4.99972120164681,-0.03964704170886384,0.019446050889621484,0
393,0.015719999999999956,4.99972120164681,-0.04326372963934923,0.015840355155732996,0
394,0.015759999999999996,4.99972120164681,-0.0491819462191435,0.00993321089722056,0
395,0.015800000000000036,5.000049991798719,-0.047537997173404054,0.011588312323528305,0
396,0.015840000000000076,4.99972120164681,-0.044907678693494255,0.014229863177346334,0
397,0.015879999999999894,5.000049991798719,-0.04030462133375036,0.018844232837844366,0
398,0.015919999999999934,4.99972120164681,-0.03931825189622702,0.01984199443592674,0
399,0.015959999999999974,5.000049991798719,-0.04359251945043667,0.015579198834493716,0
400,0.016000000000000014,4.99972120164681,-0.057730481204784426,0.001452788757007016,0
401,0.016040000000000054,4.999392411494816,-0.06463506709067811,-0.005440165796619559,0
402,0.016080000000000094,4.99972120164681,-0.056415321981929514,0.002791290230579148,0
403,0.016119999999999912,5.000378781950543,-0.04720920736386795,0.012009195283506705,0
404,0.016159999999999952,4.99972120164681,-0.058716850620562686,0.0005134219077832305,0
405,0.016199999999999992,4.99972120164681,-0.05707290159361651,0.002169320190952395,0
406,0.016240000000000032,4.99972120164681,-0.06463506709067811,-0.005380816746030213,0
407,0.016280000000000072,5.000049991798719,-0.07088207331895803,-0.011615715182312435,0
408,0.016320000000000112,5.000049991798719,-0.07449876111382696,-0.015220216025743208,0
409,0.01635999999999993,4.99972120164681,-0.06890933451510713,-0.009618523389163282,0
410,0.01639999999999997,4.99972120164681,-0.06529264669586828,-0.005989490519200537,0
411,0.01644000000000001,5.000049991798719,-0.06430627728788789,-0.00499069712172967,0
412,0.01648000000000005,4.99972120164681,-0.059045640425562415,0.00028244259421728035,0
413,0.01652000000000009,4.99972120164681,-0.06233353846841526,-0.002992873806056423,0
414,0.016559999999999908,4.99972120164681,-0.07416997131494572,-0.014816646296760397,0
415,0.016599999999999948,5.000378781950543,-0.07285481211811588,-0.01348874810710348,0
416,0.016639999999999988,5.000378781950543,-0.08271850604340404,-0.023339624479346524,0
417,0.016680000000000028,4.99972120164681,-0.07844423869021762,-0.019052461090214752,0
418,0.016720000000000068,5.000049991798719,-0.08107455706402487,-0.02166980502302871,0
419,0.016760000000000108,5.000049991798719,-0.07219723251891826,-0.012779427710267084,0
420,0.016799999999999926,5.000049991798719,-0.06364869768191721,-0.0042177618578687764,0
421,0.016839999999999966,5.000049991798719,-0.06003200983978245,-0.0005878648320465779,0
422,0.016880000000000006,5.000378781950543,-0.059045640425562415,0.00041179185416702346,0
423,0.016920000000000046,5.000049991798719,-0.06331990787873677,-0.0038491103192229495,0
424,0.016960000000000086,5.000049991798719,-0.06430627728788789,-0.004822036521844729,0
425,0.016999999999999904,5.000378781950543,-0.0715396529191989,-0.012041891101457161,0
426,0.017039999999999944,4.99972120164681,-0.06660780590468694,-0.007096445272182089,0
427,0.017079999999999984,5.000378781950543,-0.06200474866471477,-0.0024797115370152473,0
428,0.017120000000000024,4.99972120164681,-0.06397748748496758,-0.0044386962648023595,0
429,0.017160000000000064,5.000707572102282,-0.07548513050968754,-0.015932507683472916,0
430,0.017200000000000104,4.99972120164681,-0.08534882440360501,-0.025782292541970793,0
431,0.017239999999999922,5.000049991798719,-0.08074576726775658,-0.02116524902607144,0
432,0.017279999999999962,5.000049991798719,-0.07975939787816717,-0.020164815997063316,0
433,0.017320000000000002,5.000378781950543,-0.07121086311914367,-0.011602140425040708,0
434,0.017360000000000042,5.000049991798719,-0.05378500352999273,0.005837937064379215,0
435,0.017400000000000082,5.000049991798719,-0.07449876111382696,-0.014861525618748997,0
436,0.0174399999999999,5.000049991798719,-0.08041697747135755,-0.020765370162491033,0
437,0.01747999999999994,5.000378781950543,-0.08173213665616903,-0.0220660807083067,0
438,0.01751999999999998,4.999392411494816,-0.07219723251891826,-0.012516651195248044,0
439,0.01756000000000002,5.000049991798719,-0.0629911180754263,-0.00329593472805062,0
440,0.01760000000000006,5.000049991798719,-0.06233353846841526,-0.002623676538869378,0
441,0.0176400000000001,5.000378781950543,-0.06627901610267752,-0.006554399122447201,0
442,0.017679999999999918,4.99972120164681,-0.07647149990437309,-0.016732051495411383,0
443,0.017719999999999958,5.000049991798719,-0.0840336652245519,-0.024279309099795032,0
444,0.017759999999999998,4.99972120164681,-0.07449876111382696,-0.014729421077709665,0
445,0.017800000000000038,4.999392411494816,-0.07581392030804664,-0.01602952025701653,0
446,0.017840000000000078,4.99972120164681,-0.07186844271912378,-0.012068906642155153,0
447,0.017879999999999896,5.000049991798719,-0.07088207331895803,-0.011067325298064788,0
448,0.017919999999999936,4.99972120164681,-0.06562143649826817,-0.005791400709016001,0
449,0.017959999999999976,5.000378781950543,-0.060689589448612954,-0.0008441901606305868,0
450,0.018000000000000016,5.000049991798719,-0.05674411178783788,0.0031167266346725543,0
451,0.018040000000000056,5.000707572102282,-0.05148347487774181,0.008392878220011581,0
452,0.018080000000000096,5.000049991798719,-0.05312742391571186,0.0067645193024077725,0
453,0.018119999999999914,4.99972120164681,-0.06660780590468694,-0.006700197217177302,0
454,0.018159999999999954,5.000049991798719,-0.09948678544589158,-0.039563436036574584,0
455,0.018199999999999994,5.000049991798719,-0.11230958711109378,-0.05237042182466459,0
456,0.018240000000000034,4.999063621342738,-0.0998155752346823,-0.03986051901345382,0
457,0.018280000000000074,5.000049991798719,-0.08370487542946127,-0.023733853313868347,0
458,0.018320000000000114,5.000378781950543,-0.06627901610267752,-0.006291953231780247,0
459,0.018359999999999932,5.000707572102282,-0.059374430230432304,0.0006287481575814741,0
460,0.018399999999999972,5.000049991798719,-0.05805927101017365,0.0019600975571393182,0
461,0.018440000000000012,5.000707572102282,-0.09126704068339796,-0.031231407374733403,0
462,0.018480000000000052,5.000378781950543,-0.06595022630053791,-0.005898253789099729,0
463,0.018520000000000092,4.999392411494816,-0.06101837925283336,-0.0009499931783286432,0
464,0.01855999999999991,5.001036362253937,-0.06726538550831525,-0.007180511612078402,0
465,0.01859999999999995,5.000378781950543,-0.08600640399234578,-0.025904968117835686,0
466,0.01863999999999999,5.000378781950543,-0.09619888755075014,-0.03608081564404637,0
467,0.01868000000000003,5.000049991798719,-0.09455493859824966,-0.034420156708547894,0
468,0.01872000000000007,5.000049991798719,-0.08370487542946127,-0.023553309709567684,0
469,0.01876000000000011,4.999392411494816,-0.06660780590468694,-0.006439382611511925,0
470,0.018799999999999928,5.000378781950543,-0.057730481204784426,0.0024548733001648615,0
471,0.018839999999999968,5.000378781950543,-0.05575774236972354,0.004444616880404352,0
472,0.018880000000000008,5.000049991798719,-0.057730481204784426,0.0024889562183472054,0
473,0.018920000000000048,5.000049991798719,-0.06134716905692379,-0.0011105801390322786,0
474,0.018960000000000088,5.000049991798719,-0.06759417530993413,-0.007340361682084354,0
475,0.018999999999999906,5.000049991798719,-0.07778665909545869,-0.017515547649497868,0
476,0.019039999999999946,4.99972120164681,-0.06233353846841526,-0.0020450562037230835,0
477,0.019079999999999986,5.000049991798719,-0.05575774236972354,0.004548183606302086,0
478,0.019120000000000026,5.000378781950543,-0.05838806081543309,0.0019353816560249322,0
479,0.019160000000000066,5.000378781950543,-0.07022449371819571,-0.00988346207619343,0
480,0.019200000000000106,5.000049991798719,-0.06825175491278114,-0.007893061534592804,0
481,0.019239999999999924,5.000049991798719,-0.06562143649826817,-0.005245008928204006,0
482,0.019279999999999964,5.000049991798719,-0.06134716905692379,-0.0009529349497271848,0
483,0.019320000000000004,5.000049991798719,-0.057401691399265334,0.003010421479407041,0
484,0.019360000000000044,5.000378781950543,-0.05148347487774181,0.008946588895357193,0
485,0.019400000000000084,5.000378781950543,-0.06233353846841526,-0.0018854517898094086,0
486,0.019439999999999902,5.000707572102282,-0.0626623282719858,-0.0021961467891407765,0
487,0.019479999999999942,5.000707572102282,-0.0626623282719858,-0.002177980198993325,0
488,0.019519999999999982,4.99972120164681,-0.05707290159361651,0.003429684742132455,0
489,0.019560000000000022,4.99972120164681,-0.05082589526164695,0.009695000895694143,0
490,0.019600000000000062,4.99972120164681,-0.046551627744407784,0.013987649679114538,0
491,0.019640000000000102,5.000378781950543,-0.0626623282719858,-0.0021045982524117643,0
492,0.01967999999999992,5.000049991798719,-0.06726538550831525,-0.006689131678008789,0
493,0.01971999999999996,5.000049991798719,-0.08271850604340404,-0.02212365730334426,0
494,0.01976,4.99972120164681,-0.06595022630053791,-0.005336711667832703,0
495,0.01980000000000004,5.000049991798719,-0.0629911180754263,-0.002358866683780148,0
496,0.01984000000000008,5.000049991798719,-0.059374430230432304,0.0012766286693868187,0
497,0.019879999999999898,5.000707572102282,-0.060689589448612954,-1.965240891813394e-05,0
498,0.019919999999999938,5.000378781950543,-0.06890933451510713,-0.008220448821827923,0
499,0.019959999999999978,5.000378781950543,-0.07186844271912378,-0.011160537977009208,0
500,0.020000000000000018,4.99972120164681,-0.06430627728788789,-0.003579283220607205,0
501,0.020040000000000058,5.000049991798719,-0.059374430230432304,0.001371723318963512,0
502,0.020080000000000098,5.000378781950543,-0.06003200983978245,0.0007333732288352102,0
503,0.020119999999999916,5.000378781950543,-0.06956691411691203,-0.008782231612267533,0
504,0.020159999999999956,5.000707572102282,-0.07252602231858225,-0.011721970581866092,0
505,0.020199999999999996,5.000049991798719,-0.07482755091257769,-0.014004060268962556,0
506,0.020240000000000036,4.99972120164681,-0.07351239171679176,-0.012669392613124046,0
507,0.020280000000000076,4.99972120164681,-0.06660780590468694,-0.005745228909941766,0
508,0.020319999999999894,4.99972120164681,-0.06562143649826817,-0.004739212304003267,0
509,0.020359999999999934,4.99972120164681,-0.06858054471400928,-0.007678604134817853,0
510,0.020399999999999974,5.000049991798719,-0.06989570391761903,-0.008973977891581449,0
511,0.020440000000000014,4.99972120164681,-0.03471519450577058,0.026226385905094882,0
512,0.020480000000000054,5.000049991798719,-0.06890933451510713,-0.007947830905819412,0
513,0.020520000000000094,5.000707572102282,-0.07088207331895803,-0.00990057782248974,0
514,0.02055999999999991,5.000378781950543,-0.05510016275699865,0.0059013931901252025,0
515,0.02059999999999995,5.000378781950543,-0.07449876111382696,-0.013477076278302049,0
516,0.02063999999999999,4.99972120164681,-0.07712907950017713,-0.01608719746468031,0
517,0.02068000000000003,5.000049991798719,-0.07811544889290346,-0.017053301472482477,0
518,0.02072000000000007,4.99972120164681,-0.08008818767482774,-0.019005706811591777,0
519,0.02076000000000011,4.99972120164681,-0.07285481211811588,-0.011751929881677295,0
520,0.02079999999999993,4.99972120164681,-0.07022449371819571,-0.009101142306110584,0
521,0.02083999999999997,5.000378781950543,-0.07055328351864205,-0.009409395256849674,0
522,0.02088000000000001,5.000707572102282,-0.07515634071119788,-0.01399184805445899,0
523,0.02092000000000005,5.000049991798719,-0.07844423869021762,-0.01725907422255152,0
524,0.02096000000000009,5.000049991798719,-0.0843624550195116,-0.023156551454632184,0
525,0.020999999999999908,4.99972120164681,-0.07055328351864205,-0.009326573700392523,0
526,0.021039999999999948,5.000378781950543,-0.0715396529191989,-0.010292069821985453,0
527,0.021079999999999988,5.000378781950543,-0.07614271010627514,-0.014874186835499428,0
528,0.021120000000000028,5.000378781950543,-0.07482755091257769,-0.013538020705068137,0
529,0.021160000000000068,5.000707572102282,-0.07778665909545869,-0.01647605531990068,0
530,0.021200000000000108,5.000049991798719,-0.08074576726775658,-0.019414023425121323,0
531,0.021239999999999926,5.000049991798719,-0.07778665909545869,-0.016433708819430917,0
532,0.021279999999999966,5.000378781950543,-0.07745786929788322,-0.01608364635528771,0
533,0.021320000000000006,5.000049991798719,-0.07219723251891826,-0.010801670810145065,0
534,0.021360000000000046,4.99972120164681,-0.07416997131494572,-0.012753004874374158,0
535,0.021400000000000086,4.99972120164681,-0.08666398358056253,-0.02522554657698397,0
536,0.021439999999999904,5.000049991798719,-0.08107455706402487,-0.019614583801064435,0
537,0.021479999999999944,5.000049991798719,-0.07614271010627514,-0.014661135022812001,0
538,0.021519999999999984,5.000378781950543,-0.07186844271912378,-0.01036520038971022,0
539,0.021560000000000024,5.000049991798719,-0.06956691411691203,-0.008041939252191377,0
540,0.021600000000000064,5.000049991798719,-0.07581392030804664,-0.01426714775516982,0
541,0.021640000000000104,5.000049991798719,-0.07975939787816717,-0.018190762621208143,0
542,0.02167999999999992,5.000378781950543,-0.08074576726775658,-0.01915520442812643,0
543,0.02171999999999996,4.99972120164681,-0.07745786929788322,-0.015845314134743164,0
544,0.02176,4.99972120164681,-0.07252602231858225,-0.010891410229255428,0
545,0.02180000000000004,5.000378781950543,-0.0715396529191989,-0.009882919439580957,0
546,0.02184000000000008,4.99972120164681,-0.07614271010627514,-0.014463790911243533,0
547,0.0218799999999999,4.999392411494816,-0.08008818767482774,-0.018387018578649793,0
548,0.02191999999999994,5.000707572102282,-0.08041697747135755,-0.018693494428097212,0
549,0.02195999999999998,5.000707572102282,-0.07515634071119788,-0.013410479815121189,0
550,0.02200000000000002,4.99972120164681,-0.07318360191751903,-0.011415299403498265,0
551,0.02204000000000006,4.99972120164681,-0.06858054471400928,-0.006789736957925813,0
552,0.0220800000000001,4.99972120164681,-0.07186844271912378,-0.01005506623826978,0
553,0.022119999999999918,4.99972120164681,-0.08041697747135755,-0.018580968924836405,0
554,0.022159999999999958,5.000378781950543,-0.07844423869021762,-0.016585534879343146,0
555,0.022199999999999998,5.000378781950543,-0.06595022630053791,-0.004068764169232303,0
556,0.022240000000000038,5.000707572102282,-0.07482755091257769,-0.012923267547767979,0
557,0.022280000000000078,4.998734831190575,-0.06759417530993413,-0.005667007941947513,0
558,0.022319999999999895,5.000378781950543,-0.06858054471400928,-0.006630430716966966,0
559,0.022359999999999935,5.001036362253937,-0.07351239171679176,-0.011539268609001658,0
560,0.022399999999999975,5.000378781950543,-0.07548513050968754,-0.013488935954035575,0
561,0.022440000000000015,5.001036362253937,-0.07384118151593398,-0.011821853320274084,0
562,0.022480000000000055,5.001036362253937,-0.07449876111382696,-0.012456237231369835,0
563,0.022520000000000095,4.99972120164681,-0.07055328351864205,-0.008487502048342671,0
564,0.022559999999999913,5.003666683464122,-0.07219723251891826,-0.010108131705862044,0
565,0.022599999999999953,5.000049991798719,-0.07581392030804664,-0.013701438543834337,0
566,0.022639999999999993,5.000707572102282,-0.07943060808137585,-0.01729468390450709,0
567,0.022680000000000033,5.000049991798719,-0.07482755091257769,-0.01266812300883316,0
568,0.022720000000000073,5.000707572102282,-0.07121086311914367,-0.009027870321966038,0
569,0.022760000000000113,5.001036362253937,-0.06989570391761903,-0.00768908520849262,0
570,0.02279999999999993,5.000049991798719,-0.06825175491278114,-0.006021449421610291,0
571,0.02283999999999997,5.000049991798719,-0.07351239171679176,-0.011258338722277727,0
572,0.02288000000000001,4.99972120164681,-0.07712907950017713,-0.01485121843019378,0
573,0.02292000000000005,5.000378781950543,-0.07614271010627514,-0.013840980538243267,0
574,0.02296000000000009,5.001036362253937,-0.07186844271912378,-0.009542784380384112,0
575,0.02299999999999991,4.99972120164681,-0.06496385689333826,-0.00261420966152326,0
576,0.02303999999999995,4.99972120164681,-0.06989570391761903,-0.007522007821023312,0
577,0.02307999999999999,5.000049991798719,-0.07384118151593398,-0.011443376733883527,0
578,0.02312000000000003,5.000049991798719,-0.07877302848740105,-0.016351055350621008,0
579,0.02316000000000007,5.000378781950543,-0.07811544889290346,-0.0156692478838847,0
580,0.02320000000000011,5.000049991798719,-0.0715396529191989,-0.009069164672563041,0
581,0.023239999999999927,5.000378781950543,-0.06890933451510713,-0.00641449981797031,0
582,0.023279999999999967,5.000049991798719,-0.06364869768191721,-0.0011294574742524975,0
583,0.023320000000000007,5.000378781950543,-0.06595022630053791,-0.003406521675536376,0
584,0.023360000000000047,5.000378781950543,-0.07416997131494572,-0.011601743519376172,0
585,0.023400000000000087,5.000049991798719,-0.06923812431607472,-0.0066453147506421745,0
586,0.023439999999999905,4.99972120164681,-0.06923812431607472,-0.006620674535777381,0
587,0.023479999999999945,5.000049991798719,-0.06660780590468694,-0.003965657619171879,0
588,0.023519999999999985,4.99972120164681,-0.06693659570656622,-0.004269690780483642,0
589,0.023560000000000025,5.000378781950543,-0.06890933451510713,-0.006217614968463331,0
590,0.023600000000000065,4.99972120164681,-0.07219723251891826,-0.009480640527427128,0
591,0.023640000000000105,5.000378781950543,-0.07647149990437309,-0.013729977799806278,0
592,0.023679999999999923,4.99972120164681,-0.07022449371819571,-0.007457983988731405,0
593,0.023719999999999963,5.000378781950543,-0.06726538550831525,-0.004473830798885626,0
594,0.023760000000000003,5.000378781950543,-0.06463506709067811,-0.00181841020331544,0
595,0.023800000000000043,4.99972120164681,-0.0498395258365333,0.013002290269285312,0
596,0.023840000000000083,5.000378781950543,-0.07614271010627514,-0.01327567789926589,0
597,0.0238799999999999,5.000049991798719,-0.07482755091257769,-0.011935245879773166,0
598,0.02391999999999994,4.99972120164681,-0.07186844271912378,-0.008950808294389812,0
599,0.02395999999999998,5.000378781950543,-0.06759417530993413,-0.004651155085946036,0
600,0.02400000000000002,5.000378781950543,-0.06233353846841526,0.0006349238030044667,0
601,0.02404000000000006,5.000049991798719,-0.06331990787873677,-0.0003259474711913282,0
602,0.0240800000000001,5.000378781950543,-0.06890933451510713,-0.005889820042560105,0
603,0.02411999999999992,5.000707572102282,-0.07416997131494572,-0.011124847008672865,0
604,0.02415999999999996,5.000378781950543,-0.07515634071119788,-0.01208555096295846,0
605,0.0242,5.000049991798719,-0.07088207331895803,-0.0077855626813253314,0
606,0.02424000000000004,5.000378781950543,-0.06430627728788789,-0.0011839904745782467,0
607,0.02428000000000008,5.000049991798719,-0.059374430230432304,0.003773687883367326,0
608,0.024319999999999897,5.000378781950543,-0.06364869768191721,-0.00047469330461140293,0
609,0.024359999999999937,5.000049991798719,-0.06496385689333826,-0.0017639114516315923,0
610,0.024399999999999977,5.000378781950543,-0.06233353846841526,0.0008924026761421644,0
611,0.024440000000000017,4.999063621342738,-0.052469844300912574,0.010782147022178879,0
612,0.024480000000000057,4.99972120164681,-0.044907678693494255,0.018370417120727494,0
613,0.024520000000000097,5.000378781950543,-0.042277360205311795,0.0210268942492306,0
614,0.024559999999999915,5.000049991798719,-0.047537997173404054,0.01579246990692593,0
615,0.024599999999999955,4.99972120164681,-0.05510016275699865,0.00825657077054647,0
616,0.024639999999999995,4.99972120164681,-0.059703220035172325,0.003679833596661519,0
617,0.024680000000000035,5.000049991798719,-0.053456213722917104,0.009953213505611975,0
618,0.024720000000000075,4.99972120164681,-0.04786678698281073,0.015569067169841255,0
619,0.024759999999999893,5.000049991798719,-0.04293493982813261,0.02052739441078089,0
620,0.024799999999999933,5.000378781950543,-0.03734551301769716,0.026143354304018637,0
621,0.024839999999999973,5.000378781950543,-0.04063341114600001,0.022882042089153752,0
622,0.024880000000000013,4.99972120164681,-0.04063341114600001,0.022908680667016516,0
623,0.024920000000000053,5.000049991798719,-0.03866067227056637,0.024908110618222526,0
624,0.024960000000000093,5.000378781950543,-0.04359251945043667,0.020003006845216026,0
625,0.02499999999999991,5.000049991798719,-0.05115468506975916,0.012467636796729124,0
626,0.02503999999999995,5.000049991798719,-0.046551627744407784,0.0170975416894682,0
627,0.02507999999999999,4.99972120164681,-0.05082589526164695,0.012850173568450637,0
628,0.02512000000000003,5.000378781950543,-0.04852436660123595,0.015178653285901792,0
629,0.02516000000000007,5.000049991798719,-0.04523646850393555,0.018493553932749957,0
630,0.02520000000000011,4.99972120164681,-0.04194857039370768,0.021808505916428047,0
631,0.02523999999999993,4.99972120164681,-0.04161978058197445,0.02216440075661613,0
632,0.02527999999999997,5.000049991798719,-0.04589404812443025,0.017917289228430777,0
633,0.02532000000000001,5.000378781950543,-0.05082589526164695,0.013012648921821409,0
634,0.02536000000000005,5.000049991798719,-0.058716850620562686,0.00514895104008295,0
635,0.02540000000000009,5.000049991798719,-0.05838806081543309,0.0055050487989060145,0
636,0.025439999999999907,4.99972120164681,-0.056415321981929514,0.0075051458922802804,0
637,0.025479999999999947,5.000049991798719,-0.0389894620834612,0.024958414186173634,0
638,0.025519999999999987,5.000049991798719,-0.03635914357669136,0.02761619105301763,0
639,0.025560000000000027,5.000378781950543,-0.03372882506167206,0.030274017721574023,0
640,0.025600000000000067,4.99972120164681,-0.03471519450577058,0.029315206053009926,0
641,0.025640000000000107,5.000378781950543,-0.042277360205311795,0.02178064757925691,0
642,0.025679999999999925,5.000049991798719,-0.04129099077011207,0.022794673518478557,0
643,0.025719999999999965,5.000378781950543,-0.04326372963934923,0.02084964025920204,0
644,0.025760000000000005,5.000049991798719,-0.04852436660123595,0.015616757840646263,0
645,0.025800000000000045,4.99972120164681,-0.04589404812443025,0.018274879621312877,0
646,0.025840000000000085,5.000049991798719,-0.054771372950441696,0.009425406686581586,0
647,0.025879999999999903,4.99972120164681,-0.04720920736386795,0.017015472578475094,0
648,0.025919999999999943,5.000378781950543,-0.04293493982813261,0.021317688659922788,0
649,0.025959999999999983,5.000049991798719,-0.0445788888829237,0.01970173621732378,0
650,0.026000000000000023,5.000378781950543,-0.0445788888829237,0.01972978072181832,0
651,0.026040000000000063,5.000378781950543,-0.05608653217589139,0.00825022965120741,0
652,0.026080000000000103,5.000378781950543,-0.059045640425562415,0.005319261167053722,0
653,0.02611999999999992,5.000378781950543,-0.05575774236972354,0.008635346356608942,0
654,0.02615999999999996,4.99972120164681,-0.046880417554202566,0.01754090549882539,0
655,0.0262,4.999063621342738,-0.03964704170886384,0.024802562688362024,0
656,0.02624000000000004,5.000378781950543,-0.04523646850393555,0.019241464079258717,0
657,0.02628000000000008,5.000049991798719,-0.05312742391571186,0.01137888351923561,0
658,0.0263199999999999,4.99972120164681,-0.05707290159361651,0.0074618271826310135,0
659,0.02635999999999994,4.999392411494816,-0.056415321981929514,0.008147874448676306,0
660,0.02639999999999998,5.000049991798719,-0.046551627744407784,0.018040082476876777,0
661,0.02644000000000002,5.000049991798719,-0.03603035376276496,0.028589916208533305,0
662,0.02648000000000006,5.000378781950543,-0.03241366580107112,0.032235209702344184,0
663,0.0265200000000001,4.99972120164681,-0.042277360205311795,0.022400166434847726,0
664,0.026559999999999917,5.000049991798719,-0.05181226468559495,0.01289395851821676,0
665,0.026599999999999957,5.000049991798719,-0.056415321981929514,0.008319643034481612,0
666,0.026639999999999997,5.000707572102282,-0.052469844300912574,0.01229390759884443,0
667,0.026680000000000037,4.99972120164681,-0.0498395258365333,0.01495305783887689,0
668,0.026720000000000077,5.000049991798719,-0.04951073602790314,0.015310724136791479,0
669,0.026759999999999895,5.000378781950543,-0.06167595886088427,0.0031744223278146457,0
670,0.026799999999999935,5.000049991798719,-0.06858054471400928,-0.0037011981457314496,0
671,0.026839999999999975,5.000049991798719,-0.07351239171679176,-0.008604035592737869,0
672,0.026880000000000015,5.000049991798719,-0.06003200983978245,0.0049053998366364844,0
673,0.026920000000000055,4.999392411494816,-0.04030462133375036,0.02466188571178532,0
674,0.026960000000000095,5.000049991798719,-0.028796977823800904,0.03619867022753834,0
675,0.026999999999999913,5.000049991798719,-0.03800309264438971,0.027021739869148957,0
676,0.027039999999999953,5.001036362253937,-0.03866067227056637,0.026393387981051987,0
677,0.027079999999999993,4.999392411494816,-0.06989570391761903,-0.00481237283277935,0
678,0.027120000000000033,5.000049991798719,-0.06792296511142272,-0.00281032027918027,0
679,0.027160000000000073,5.000049991798719,-0.06003200983978245,0.005109991472864205,0
680,0.027200000000000113,5.000378781950543,-0.054113793336938706,0.011057607007715147,0
681,0.02723999999999993,4.999392411494816,-0.05838806081543309,0.006812780931215678,0
682,0.02727999999999997,4.99972120164681,-0.05805927101017365,0.007171054326627067,0
683,0.02732000000000001,5.000378781950543,-0.06364869768191721,0.0016111532511480877,0
684,0.02736000000000005,5.000049991798719,-0.06529264669586828,-3.2283426823955658e-06,0
685,0.02740000000000009,5.000049991798719,-0.059703220035172325,0.00561580737952289,0
686,0.02743999999999991,5.000049991798719,-0.05378500352999273,0.011563674404924205,0
687,0.02747999999999995,5.000049991798719,-0.07647149990437309,-0.01109313017340602,0
688,0.02751999999999999,5.000049991798719,-0.06759417530993413,-0.002186072690178534,0
689,0.02756000000000003,4.999392411494816,-0.06200474866471477,0.003433127753273248,0
690,0.02760000000000007,5.000378781950543,-0.06825175491278114,-0.002784063970614266,0
691,0.02764000000000011,4.99972120164681,-0.06858054471400928,-0.0030829987054159505,0
692,0.027679999999999927,5.000378781950543,-0.05608653217589139,0.009440909257477268,0
693,0.027719999999999967,4.99972120164681,-0.05082589526164695,0.01473148177074889,0
694,0.027760000000000007,4.99972120164681,-0.057401691399265334,0.008185661222115679,0
695,0.027800000000000047,5.000049991798719,-0.06890933451510713,-0.0032919664992721092,0
696,0.027840000000000087,4.99972120164681,-0.06562143649826817,2.598653280679042e-05,0
697,0.027879999999999905,4.99972120164681,-0.06331990787873677,0.002357609603489055,0
698,0.027919999999999945,5.000049991798719,-0.05214105449331856,0.013566596690903519,0
699,0.027959999999999985,5.000378781950543,-0.053456213722917104,0.01228161022889196,0
700,0.028000000000000025,4.99972120164681,-0.057730481204784426,0.00803755439476008,0
701,0.028040000000000065,5.000378781950543,-0.06858054471400928,-0.0027822587722091505,0
702,0.028080000000000105,5.000378781950543,-0.07515634071119788,-0.009327765918434672,0
703,0.028119999999999923,5.000049991798719,-0.06693659570656622,-0.001077693740128028,0
704,0.028159999999999963,5.000049991798719,-0.057401691399265334,0.008487575877382931,0
705,0.028200000000000003,5.000378781950543,-0.05312742391571186,0.012792246621324999,0
706,0.028240000000000043,4.999392411494816,-0.059045640425562415,0.006904471135506704,0
707,0.028280000000000083,4.99972120164681,-0.06134716905692379,0.004633421105109737,0
708,0.0283199999999999,5.000049991798719,-0.07548513050968754,-0.009474024356644057,0
709,0.02835999999999994,4.99972120164681,-0.06627901610267752,-0.00023735675563870285,0
710,0.02839999999999998,5.000378781950543,-0.05707290159361651,0.008999347963170977,0
711,0.02844000000000002,5.000049991798719,-0.05805927101017365,0.008043605584713393,0
712,0.02848000000000006,4.99972120164681,-0.059703220035172325,0.006430320238593879,0
713,0.0285200000000001,4.99972120164681,-0.06956691411691203,-0.0034026737112256033,0
714,0.02855999999999992,4.99972120164681,-0.07614271010627514,-0.009947733303531712,0
715,0.02859999999999996,5.000378781950543,-0.07318360191751903,-0.006957852640650199,0
716,0.02864,5.000378781950543,-0.05279863410837703,0.01345792353145471,0
717,0.02868000000000004,5.000049991798719,-0.05608653217589139,0.01020086952734899,0
718,0.02872000000000008,5.000378781950543,-0.058716850620562686,0.007601430657980872,0
719,0.028759999999999897,5.000049991798719,-0.06397748748496758,0.0023717086920646002,0
720,0.028799999999999937,5.000049991798719,-0.07680028970234042,-0.010420143492499551,0
721,0.028839999999999977,4.99972120164681,-0.07055328351864205,-0.004142152330692543,0
722,0.028880000000000017,4.99972120164681,-0.06036079964426265,0.0060813512779221545,0
723,0.028920000000000057,5.000049991798719,-0.05707290159361651,0.009400303629605342,0
724,0.028960000000000097,4.99972120164681,-0.06134716905692379,0.00515712484466189,0
725,0.028999999999999915,5.000378781950543,-0.07285481211811588,-0.006319395350463115,0
726,0.029039999999999955,5.000049991798719,-0.07581392030804664,-0.009247346676394033,0
727,0.029079999999999995,5.000707572102282,-0.08074576726775658,-0.014148002964087279,0
728,0.029120000000000035,5.000378781950543,-0.06726538550831525,-0.000636396914672049,0
729,0.029160000000000075,4.99972120164681,-0.058716850620562686,0.007943395690809756,0
730,0.029200000000000115,5.000378781950543,-0.053456213722917104,0.013235323543597438,0
731,0.029239999999999933,5.000049991798719,-0.0629911180754263,0.0037317431931615953,0
732,0.029279999999999973,4.99972120164681,-0.07482755091257769,-0.008073332785604325,0
733,0.029320000000000013,5.000378781950543,-0.08140334686016236,-0.01461773920924659,0
734,0.029360000000000053,5.000378781950543,-0.07680028970234042,-0.009983260052814903,0
735,0.029400000000000093,5.000378781950543,-0.06331990787873677,0.003528576053043346,0
736,0.02943999999999991,5.000378781950543,-0.05542895256342596,0.011451017743099921,0
737,0.02947999999999995,5.000049991798719,-0.06956691411691203,-0.00265542553443265,0
738,0.02951999999999999,5.000378781950543,-0.07581392030804664,-0.0088708817398176,0
739,0.02956000000000003,4.99972120164681,-0.07811544889290346,-0.01114082882066677,0
740,0.02960000000000007,5.000378781950543,-0.07449876111382696,-0.007492528210987719,0
741,0.02964000000000011,5.000049991798719,-0.0629911180754263,0.0040467587928239585,0
742,0.02967999999999993,5.000049991798719,-0.056415321981929514,0.010654229794632035,0
743,0.02971999999999997,5.000378781950543,-0.06167595886088427,0.005425298574860406,0
744,0.02976000000000001,5.000378781950543,-0.07022449371819571,-0.0030915000645431747,0
745,0.02980000000000005,5.000049991798719,-0.07811544889290346,-0.010950688654882567,0
746,0.02984000000000009,5.000049991798719,-0.07811544889290346,-0.010918891896433448,0
747,0.029879999999999907,5.000707572102282,-0.06759417530993413,-0.00036579157342783285,0
748,0.029919999999999947,5.000049991798719,-0.05674411178783788,0.010516128477686026,0
749,0.029959999999999987,4.999392411494816,-0.06036079964426265,0.006931326746543653,0
750,0.030000000000000027,5.000378781950543,-0.07121086311914367,-0.0038868211996158355,0
751,0.030040000000000067,5.000049991798719,-0.07943060808137585,-0.012074621422620582,0
752,0.030080000000000107,4.99972120164681,-0.07778665909545869,-0.010398698680009253,0
753,0.030119999999999925,4.99972120164681,-0.07186844271912378,-0.004448479722657026,0
754,0.030159999999999965,5.000049991798719,-0.057730481204784426,0.009721513003776307,0
755,0.030200000000000005,5.000378781950543,-0.05575774236972354,0.011726311488660005,0
756,0.030240000000000045,4.99972120164681,-0.057401691399265334,0.010114450353222199,0
757,0.030280000000000085,4.99972120164681,-0.08140334686016236,-0.013855089162835569,0
758,0.030319999999999903,5.000049991798719,-0.08008818767482774,-0.012507786175569094,0
759,0.030359999999999943,5.000049991798719,-0.06956691411691203,-0.0019543411523666922,0
760,0.030399999999999983,5.000378781950543,-0.057401691399265334,0.01024308050009019,0
761,0.030440000000000023,4.999392411494816,-0.059374430230432304,0.00830256787933355,0
762,0.030480000000000063,5.000707572102282,-0.06726538550831525,0.0004438658934471755,0
763,0.030520000000000103,5.000049991798719,-0.07943060808137585,-0.011689076500133427,0
764,0.03055999999999992,4.99972120164681,-0.08469124481434036,-0.01691740636032472,0
765,0.03059999999999996,5.000707572102282,-0.07647149990437309,-0.008665328078567045,0
766,0.03064,5.000049991798719,-0.06595022630053791,0.001888305201715526,0
767,0.03068000000000004,5.000378781950543,-0.052469844300912574,0.015401072988002402,0
768,0.03072000000000008,4.998406041038327,-0.07055328351864205,-0.002649954527375286,0
769,0.0307599999999999,5.000049991798719,-0.0791018182844538,-0.011166051869748408,0
770,0.03079999999999994,5.000049991798719,-0.0840336652245519,-0.016065435860002333,0
771,0.03083999999999998,5.000049991798719,-0.0820609264520449,-0.014060208806003234,0
772,0.03088000000000002,5.000707572102282,-0.06496385689333826,0.0030693741710110366,0
773,0.03092000000000006,5.000378781950543,-0.05608653217589139,0.01197923724867555,0
774,0.0309600000000001,5.002351522859708,-0.06562143649826817,0.002476896033449338,0
775,0.030999999999999917,4.998406041038327,-0.07449876111382696,-0.00636784092307302,0
776,0.031039999999999957,4.99972120164681,-0.06529264669586828,0.0028708855106925803,0
777,0.031079999999999997,5.000378781950543,-0.08107455706402487,-0.012878388680068693,0
778,0.031120000000000037,4.99972120164681,-0.06693659570656622,0.0012922328211264888,0
779,0.031160000000000077,5.000378781950543,-0.059045640425562415,0.009215872016897386,0
780,0.031199999999999894,5.000049991798719,-0.06233353846841526,0.005960681464469561,0
781,0.031239999999999934,4.99972120164681,-0.07285481211811588,-0.0045278613145811435,0
782,0.031279999999999974,4.99972120164681,-0.08370487542946127,-0.015345170570543604,0
783,0.031320000000000014,5.000378781950543,-0.0820609264520449,-0.013668444548560435,0
784,0.031360000000000054,4.99972120164681,-0.07186844271912378,-0.0034431609774934003,0
785,0.031400000000000095,4.99972120164681,-0.06331990787873677,0.005138196298959903,0
786,0.03143999999999991,5.000049991798719,-0.06134716905692379,0.0071437799590484095,0
787,0.03147999999999995,5.000049991798719,-0.08238971624778989,-0.013865900187094961,0
788,0.03151999999999999,4.99972120164681,-0.07877302848740105,-0.010216323371347525,0
789,0.03156000000000003,4.99972120164681,-0.07943060808137585,-0.010840992095186916,0
790,0.03160000000000007,4.99972120164681,-0.06956691411691203,-0.0009443656417161481,0
791,0.03164000000000011,4.99972120164681,-0.06233353846841526,0.006321963918709147,0
792,0.03167999999999993,5.000378781950543,-0.0626623282719858,0.0060261492539956385,0
793,0.03171999999999997,5.000378781950543,-0.0715396529191989,-0.0028181792234665184,0
794,0.03176000000000001,4.99972120164681,-0.0820609264520449,-0.01330643575174218,0
795,0.03180000000000005,5.000049991798719,-0.08502003460903816,-0.016232506265458628,0
796,0.03184000000000009,5.000378781950543,-0.07121086311914367,-0.0023902766897304327,0
797,0.03187999999999991,5.000378781950543,-0.06956691411691203,-0.0007132493552930545,0
798,0.03191999999999995,5.000707572102282,-0.06233353846841526,0.0065532246755629076,0
799,0.03195999999999999,5.000049991798719,-0.06858054471400928,0.00033933666623078666,0
800,0.03200000000000003,5.000378781950543,-0.0820609264520449,-0.013107907177921565,0
801,0.03204000000000007,4.99972120164681,-0.08502003460903816,-0.01603385797972053,0
802,0.03208000000000011,4.99972120164681,-0.0791018182844538,-0.010082465034968518,0
803,0.032119999999999926,5.000707572102282,-0.06627901610267752,0.002773532835585176,0
804,0.032159999999999966,4.99972120164681,-0.06430627728788789,0.004779486211374091,0
805,0.032200000000000006,5.000378781950543,-0.07252602231858225,-0.003407025582509717,0
806,0.032240000000000046,4.99972120164681,-0.08337608563423975,-0.01422383718197722,0
807,0.032280000000000086,5.000049991798719,-0.09356856922517286,-0.02438305077379225,0
808,0.032319999999999904,5.000378781950543,-0.0843624550195116,-0.015143648482554183,0
809,0.032359999999999944,5.000049991798719,-0.06989570391761903,-0.0006435914051117295,0
810,0.032399999999999984,5.000378781950543,-0.06463506709067811,0.004650369090851621,0
811,0.032440000000000024,5.000049991798719,-0.06923812431607472,8.06530314363136e-05,0
812,0.032480000000000064,5.000049991798719,-0.08502003460903816,-0.015667898795112385,0
813,0.032520000000000104,4.99972120164681,-0.09093825089119083,-0.021552739506952488,0
814,0.03255999999999992,5.000378781950543,-0.08896551213519292,-0.019546608273288545,0
815,0.03259999999999996,5.000049991798719,-0.07581392030804664,-0.006361607257674231,0
816,0.03264,4.999392411494816,-0.06825175491278114,0.0012339838403042178,0
817,0.03268000000000004,4.99972120164681,-0.08337608563423975,-0.013856904860757654,0
818,0.03272000000000008,5.000049991798719,-0.08929430192818714,-0.019741663013188273,0
819,0.0327599999999999,5.000049991798719,-0.1027746833278755,-0.033188570346804475,0
820,0.03279999999999994,5.000049991798719,-0.10343226290269213,-0.033812660127557716,0
821,0.03283999999999998,4.999392411494816,-0.09422614880735543,-0.024573040706728347,0
822,0.03288000000000002,5.000049991798719,-0.08337608563423975,-0.01368945687324893,0
823,0.03292000000000006,5.000378781950543,-0.09126704068339796,-0.021546876123725252,0
824,0.0329600000000001,5.000049991798719,-0.10178831396466272,-0.03203459866453602,0
825,0.03299999999999992,5.000378781950543,-0.10836410969701198,-0.03857682891119689,0
826,0.03303999999999996,4.99972120164681,-0.11263837689474214,-0.042817516074532186,0
827,0.03308,5.000049991798719,-0.09455493859824966,-0.024700483391454642,0
828,0.03312000000000004,5.000049991798719,-0.09093825089119083,-0.02105018714212381,0
829,0.03316000000000008,5.000707572102282,-0.09192462026741856,-0.0220029340168814,0
830,0.033199999999999896,5.000049991798719,-0.10441863226392899,-0.034463309749196216,0
831,0.033239999999999936,5.000049991798719,-0.11395353602801415,-0.04396456368281538,0
832,0.033279999999999976,4.99972120164681,-0.1100080586218566,-0.039985423076357246,0
833,0.033320000000000016,5.000378781950543,-0.09948678544589158,-0.02943047352667219,0
834,0.033360000000000056,5.000378781950543,-0.08534882440360501,-0.015258823133638823,0
835,0.033400000000000096,5.000049991798719,-0.08666398358056253,-0.016540280179191593,0
836,0.033439999999999914,4.99972120164681,-0.07416997131494572,-0.004012553197855416,0
837,0.033479999999999954,5.000707572102282,-0.10902168926734575,-0.03883054404653767,0
838,0.033519999999999994,5.000378781950543,-0.11592627472395621,-0.04570139020771967,0
839,0.033560000000000034,5.000378781950543,-0.10935047905231472,-0.039091843245196406,0
840,0.033600000000000074,5.000049991798719,-0.09882920586791545,-0.028536806970687684,0
841,0.033640000000000114,5.000378781950543,-0.09323977943388458,-0.022913605843512007,0
842,0.03367999999999993,4.99972120164681,-0.09389735901632983,-0.023537399325934606,0
843,0.03371999999999997,5.000049991798719,-0.09948678544589158,-0.029093028444717083,0
844,0.03376000000000001,5.000049991798719,-0.10474742205074437,-0.03431985672411728,0
845,0.03380000000000005,5.000707572102282,-0.09915799565696932,-0.02869661118626024,0
846,0.03384000000000009,5.000049991798719,-0.09554130797014417,-0.025046093732726586,0
847,0.03387999999999991,5.000049991798719,-0.09619888755075014,-0.025669833119958074,0
848,0.03391999999999995,5.000049991798719,-0.09850041607873007,-0.027937511223814146,0
849,0.03395999999999999,5.000049991798719,-0.1136247462448944,-0.043027980930976394,0
850,0.03400000000000003,5.000049991798719,-0.12052933166263081,-0.04989869605065671,0
851,0.03404000000000007,4.99972120164681,-0.10672016076886852,-0.03605564521556,0
852,0.03408000000000011,5.000707572102282,-0.09422614880735543,-0.023527743865159798,0
853,0.03411999999999993,5.000707572102282,-0.0820609264520449,-0.01132862286908354,0
854,0.03415999999999997,5.000378781950543,-0.08732156316825516,-0.01655535188827039,0
855,0.03420000000000001,5.000378781950543,-0.10639137098284411,-0.035591243145144495,0
856,0.03424000000000005,5.000378781950543,-0.11592627472395621,-0.04509222166336054,0
857,0.03428000000000009,4.99972120164681,-0.11921417253994292,-0.048346185786722576,0
858,0.034319999999999906,5.000378781950543,-0.10310347311534969,-0.03220154439516962,0
859,0.034359999999999946,5.000378781950543,-0.08732156316825516,-0.016385684402113146,0
860,0.034399999999999986,4.999392411494816,-0.08962309172105022,-0.01865325502521476,0
861,0.034440000000000026,5.000378781950543,-0.10474742205074437,-0.03374361973669113,0
862,0.034480000000000066,5.000707572102282,-0.11921417253994292,-0.04817639711428977,0
863,0.034520000000000106,4.99972120164681,-0.12052933166263081,-0.04945757582707154,0
864,0.034559999999999924,5.000049991798719,-0.10803531991164712,-0.03692957656288342,0
865,0.034599999999999964,5.000049991798719,-0.09323977943388458,-0.02210004166355677,0
866,0.034640000000000004,5.000049991798719,-0.09192462026741856,-0.020750881362034554,0
867,0.034680000000000044,5.000049991798719,-0.10408984247698179,-0.03288209591784472,0
868,0.034720000000000084,5.000049991798719,-0.11658385428821218,-0.04534209375134658,0
869,0.0347599999999999,5.001036362253937,-0.12315964990164728,-0.05188386925772371,0
870,0.03479999999999994,5.000378781950543,-0.10967926883715166,-0.038369462151410065,0
871,0.03483999999999998,4.99972120164681,-0.09323977943388458,-0.02189594096605608,0
872,0.03488000000000002,5.000049991798719,-0.09028067130638286,-0.018902795510610124,0
873,0.03492000000000006,4.99972120164681,-0.0998155752346823,-0.02840365675943856,0
874,0.0349600000000001,5.000378781950543,-0.11395353602801415,-0.042507569716020696,0
875,0.03499999999999992,5.000049991798719,-0.11198079732731327,-0.040500778215455426,0
876,0.03503999999999996,5.000049991798719,-0.10343226290269213,-0.03191818622193373,0
877,0.03508,4.99972120164681,-0.08830793254881113,-0.016759793724107408,0
878,0.03512000000000004,5.000049991798719,-0.07548513050968754,-0.0039029251598967467,0
879,0.03516000000000008,4.99972120164681,-0.08863672234206758,-0.01702044627986084,0
880,0.0351999999999999,5.000049991798719,-0.11395353602801415,-0.042303185259783944,0
881,0.03523999999999994,5.000049991798719,-0.13828397961110772,-0.0665995503368749,0
882,0.03527999999999998,5.000378781950543,-0.1333521329976266,-0.06163362161094598,0
883,0.03532000000000002,5.000049991798719,-0.10836410969701198,-0.036611512784876364,0
884,0.03536000000000006,5.000049991798719,-0.08830793254881113,-0.016521246891554098,0
885,0.0354000000000001,5.000049991798719,-0.08534882440360501,-0.013528046974802161,0
886,0.035439999999999916,5.000049991798719,-0.09882920586791545,-0.026974333834284353,0
887,0.035479999999999956,5.000378781950543,-0.10408984247698179,-0.03220087319828057,0
888,0.035519999999999996,5.000049991798719,-0.1100080586218566,-0.038084989650781,0
889,0.035560000000000036,5.000049991798719,-0.09751404671038476,-0.02555687579246372,0
890,0.035600000000000076,5.001036362253937,-0.08995188151378213,-0.017960606587271936,0
891,0.035639999999999894,4.99972120164681,-0.08732156316825516,-0.015296182364032108,0
892,0.035679999999999934,5.000378781950543,-0.09389735901632983,-0.02183787065778127,0
893,0.035719999999999974,5.000049991798719,-0.10639137098284411,-0.03429777358575817,0
894,0.035760000000000014,4.99972120164681,-0.10770653012615032,-0.03557882239860393,0
895,0.035800000000000054,4.99972120164681,-0.09652767734085597,-0.02436585818310154,0
896,0.035840000000000094,4.999392411494816,-0.08238971624778989,-0.010193784752140476,0
897,0.03587999999999991,5.000378781950543,-0.08140334686016236,-0.009173302310875566,0
898,0.03591999999999995,5.000049991798719,-0.08863672234206758,-0.016372564215228015,0
899,0.03595999999999999,5.000707572102282,-0.10014436502334141,-0.027846092986741643,0
900,0.03600000000000003,5.000049991798719,-0.10737774034052165,-0.035045354253541904,0
901,0.03604000000000007,5.000707572102282,-0.09587009776051285,-0.023503597673999163,0
902,0.03608000000000011,5.000049991798719,-0.08074576726775658,-0.008345153423897536,0
903,0.03611999999999993,5.000049991798719,-0.07548513050968754,-0.003050403341889659,0
904,0.03615999999999997,5.000378781950543,-0.08502003460903816,-0.012551194741799897,0
905,0.03620000000000001,5.000049991798719,-0.10474742205074437,-0.03224447029952868,0
906,0.03624000000000005,5.000049991798719,-0.09948678544589158,-0.026949722816997094,0
907,0.03628000000000009,5.000378781950543,-0.09389735901632983,-0.021326186706760408,0
908,0.03631999999999991,5.000378781950543,-0.07778665909545869,-0.005181378492791586,0
909,0.03635999999999995,4.99972120164681,-0.07252602231858225,0.00011336499916518583,0
910,0.03639999999999999,5.000378781950543,-0.07548513050968754,-0.002811638245182574,0
911,0.03644000000000003,5.000049991798719,-0.09521251817964406,-0.022504922926873762,0
912,0.03648000000000007,5.000378781950543,-0.10408984247698179,-0.03134814638447023,0
913,0.03652000000000011,5.000378781950543,-0.08995188151378213,-0.01717608691994635,0
914,0.036559999999999926,5.000378781950543,-0.08469124481434036,-0.011881354247349925,0
915,0.036599999999999966,5.000378781950543,-0.07482755091257769,-0.00198356709021303,0
916,0.036640000000000006,5.000378781950543,-0.07318360191751903,-0.0003055277470282794,0
917,0.036680000000000046,5.000707572102282,-0.09521251817964406,-0.022300356757598404,0
918,0.036720000000000086,5.000049991798719,-0.10014436502334141,-0.02719811963548903,0
919,0.036759999999999904,4.999392411494816,-0.09587009776051285,-0.022889771881631223,0
920,0.036799999999999944,5.000378781950543,-0.08107455706402487,-0.008060154357771757,0
921,0.036839999999999984,5.000049991798719,-0.0715396529191989,0.0015088227620380923,0
922,0.036880000000000024,5.000378781950543,-0.07416997131494572,-0.00108742669969044,0
923,0.036920000000000064,5.000378781950543,-0.09192462026741856,-0.018808010947535328,0
924,0.036960000000000104,5.000049991798719,-0.1024458935402696,-0.02929522393341881,0
925,0.03699999999999992,5.000049991798719,-0.09882920586791545,-0.025644480579871377,0
926,0.03703999999999996,5.000049991798719,-0.08107455706402487,-0.007855780888518106,0
927,0.03708,5.000378781950543,-0.07647149990437309,-0.003218677822931497,0
928,0.03712000000000004,5.000049991798719,-0.07449876111382696,-0.001211898295615313,0
929,0.03716000000000008,5.000378781950543,-0.08699277337447438,-0.013671875176132511,0
930,0.0371999999999999,5.000049991798719,-0.09915799565696932,-0.025803067622448935,0
931,0.03723999999999994,5.000049991798719,-0.10080194460026483,-0.027412992460664858,0
932,0.03727999999999998,5.000378781950543,-0.08765035296190492,-0.014227382635305555,0
933,0.03732000000000002,5.000378781950543,-0.07186844271912378,0.0015885396895809409,0
934,0.03736000000000006,4.999063621342738,-0.06496385689333826,0.008527131305932578,0
935,0.0374000000000001,4.99972120164681,-0.07219723251891826,0.0013277549929042592,0
936,0.03743999999999992,5.000049991798719,-0.0971852569206733,-0.023626276760617432,0
937,0.03747999999999996,5.001036362253937,-0.09192462026741856,-0.018331654309578893,0
938,0.03752,5.000049991798719,-0.09159583047547391,-0.017968885756256856,0
939,0.03756000000000004,4.999392411494816,-0.07975939787816717,-0.006098481619760395,0
940,0.03760000000000008,5.000707572102282,-0.06923812431607472,0.0044567560737298825,0
941,0.037639999999999896,4.999392411494816,-0.07745786929788322,-0.003729032369898612,0
942,0.037679999999999936,4.999392411494816,-0.09159583047547391,-0.01783304478777335,0
943,0.037719999999999976,5.000378781950543,-0.09948678544589158,-0.02569005896200441,0
944,0.037760000000000016,5.000049991798719,-0.09258219985091413,-0.018751540719252696,0
945,0.037800000000000056,4.99972120164681,-0.07614271010627514,-0.0022781266599511407,0
946,0.037840000000000096,4.99972120164681,-0.07548513050968754,-0.0015866312663271598,0
947,0.037879999999999914,5.000049991798719,-0.07647149990437309,-0.002539093565930968,0
948,0.037919999999999954,5.000049991798719,-0.09028067130638286,-0.016314366758954604,0
949,0.037959999999999994,5.000049991798719,-0.10211710375253198,-0.028116910066165592,0
950,0.038000000000000034,5.000049991798719,-0.09685646713083039,-0.02282239355933629,0
951,0.038040000000000074,5.000049991798719,-0.08304729583888733,-0.008979351819647048,0
952,0.038080000000000114,5.000378781950543,-0.07614271010627514,-0.002040905260048735,0
953,0.03811999999999993,5.000378781950543,-0.07614271010627514,-0.0020070542370071234,0
954,0.03815999999999997,5.000049991798719,-0.08830793254881113,-0.01413843564343524,0
955,0.03820000000000001,5.000049991798719,-0.09915799565696932,-0.02495466788521213,0
956,0.03824000000000005,5.000049991798719,-0.09948678544589158,-0.025249637160074632,0
957,0.03828000000000009,5.000049991798719,-0.08699277337447438,-0.0127218151093152,0
958,0.03831999999999991,5.000378781950543,-0.06956691411691203,0.0047378434106762415,0
959,0.03835999999999995,5.000049991798719,-0.06595022630053791,0.008388319590572374,0
960,0.03839999999999999,5.000378781950543,-0.08271850604340404,-0.008346182869469903,0
961,0.03844000000000003,5.000049991798719,-0.09685646713083039,-0.022450377936357624,0
962,0.03848000000000007,5.000707572102282,-0.10080194460026483,-0.026362100828920355,0
963,0.03852000000000011,5.000049991798719,-0.11099442797517921,-0.03652084125180509,0
964,0.03855999999999993,5.000378781950543,-0.07877302848740105,-0.004265710617806645,0
965,0.03859999999999997,4.99972120164681,-0.07252602231858225,0.0020150147106648697,0
966,0.03864000000000001,5.000049991798719,-0.08238971624778989,-0.00781497222600554,0
967,0.03868000000000005,5.000378781950543,-0.09356856922517286,-0.018960130558303014,0
968,0.03872000000000009,5.000378781950543,-0.09685646713083039,-0.02221434634645001,0
969,0.038759999999999906,5.000378781950543,-0.08863672234206758,-0.013960932147660438,0
970,0.038799999999999946,5.000049991798719,-0.07548513050968754,-0.0007756837924304746,0
971,0.038839999999999986,5.000049991798719,-0.07088207331895803,0.003861016854495962,0
972,0.038880000000000026,4.99972120164681,-0.07614271010627514,-0.0013659897225351755,0
973,0.038920000000000066,5.000707572102282,-0.09028067130638286,-0.015470334137306457,0
974,0.038960000000000106,4.997748460733576,-0.09356856922517286,-0.01872462887452761,0
975,0.038999999999999924,5.002680313010939,-0.08699277337447438,-0.01211524362462392,0
976,0.039039999999999964,5.001036362253937,-0.07811544889290346,-0.003204343704584278,0
977,0.039080000000000004,5.000049991798719,-0.07121086311914367,0.0037338033687593294,0
978,0.039120000000000044,5.003009103162085,-0.07614271010627514,-0.0011644966355959865,0
979,0.039160000000000084,4.998077250885994,-0.08962309172105022,-0.014611345762098348,0
980,0.0391999999999999,5.001036362253937,-0.09587009776051285,-0.02082483398525934,0
981,0.03923999999999994,5.000707572102282,-0.08732156316825516,-0.012242796425909336,0
982,0.03927999999999998,5.000049991798719,-0.08173213665616903,-0.006619881972947807,0
983,0.03932000000000002,5.000378781950543,-0.06792296511142272,0.007222762309681233,0
984,0.03936000000000006,4.99972120164681,-0.07384118151593398,0.001338003263517365,0
985,0.0394000000000001,4.99972120164681,-0.08797914275542355,-0.012766516173468592,0
986,0.03943999999999992,5.000378781950543,-0.09455493859824966,-0.019308885945707878,0
987,0.03947999999999996,5.001036362253937,-0.09455493859824966,-0.019275475782874307,0
988,0.03952,4.99972120164681,-0.07877302848740105,-0.003460171592544109,0
989,0.03956000000000004,5.000378781950543,-0.07121086311914367,0.004135371596483001,0
990,0.03960000000000008,5.000378781950543,-0.07712907950017713,-0.001749483397612328,0
991,0.0396399999999999,5.000378781950543,-0.08600640399234578,-0.01059346311155306,0
992,0.03967999999999994,5.000049991798719,-0.09685646713083039,-0.021410198255156165,0
993,0.03971999999999998,4.99972120164681,-0.09850041607873007,-0.023020836165913498,0
994,0.03976000000000002,5.000707572102282,-0.0843624550195116,-0.00884958120143988,0
995,0.03980000000000006,4.99972120164681,-0.07647149990437309,-0.0009253494868354875,0
996,0.0398400000000001,5.000049991798719,-0.06923812431607472,0.006341285221484409,0
997,0.039879999999999916,5.000378781950543,-0.08765035296190492,-0.01203770195717551,0
998,0.039919999999999956,4.99972120164681,-0.09850041607873007,-0.022854541432839146,0
999,0.039959999999999996,5.000049991798719,-0.10047315481186896,-0.02479407452373221,0
1000,0.040000000000000036,5.000378781950543,-0.09060946109885244,-0.014897193340040641,0
1001,0.040040000000000076,4.99972120164681,-0.07943060808137585,-0.003685171195861734,0
1002,0.040080000000000116,5.000049991798719,-0.07647149990437309,-0.0006929124082771798,0
1003,0.040119999999999933,5.000049991798719,-0.0863351937865197,-0.010523474367854772,0
1004,0.040159999999999973,5.000049991798719,-0.09751404671038476,-0.02166921422879928,0
1005,0.040200000000000014,5.000049991798719,-0.10441863226392899,-0.028540705750449518,0
1006,0.040240000000000054,5.000378781950543,-0.09126704068339796,-0.015356039340170442,0
1007,0.040280000000000094,5.000049991798719,-0.07219723251891826,0.003746824281051969,0
1008,0.04031999999999991,4.99972120164681,-0.06726538550831525,0.008711707204794021,0
1009,0.04035999999999995,4.99972120164681,-0.07877302848740105,-0.0027629195750925803,0
1010,0.04039999999999999,5.000049991798719,-0.09028067130638286,-0.014237566078887952,0
1011,0.04044000000000003,5.000049991798719,-0.09587009776051285,-0.019794016271652712,0
1012,0.04048000000000007,4.99972120164681,-0.09192462026741856,-0.015815582740557135,0
1013,0.04052000000000011,5.000049991798719,-0.08140334686016236,-0.0052613736879394656,0
1014,0.04055999999999993,5.000049991798719,-0.07252602231858225,0.003648865937354452,0
1015,0.04059999999999997,5.000049991798719,-0.07745786929788322,-0.0012500866886191314,0
1016,0.04064000000000001,4.99972120164681,-0.08271850604340404,-0.006477849979667476,0
1017,0.04068000000000005,5.000049991798719,-0.09291098964246501,-0.016637481191308083,0
1018,0.04072000000000009,4.999392411494816,-0.08830793254881113,-0.012001592945210818,0
1019,0.04075999999999991,5.000049991798719,-0.08271850604340404,-0.006379356689988715,0
1020,0.04079999999999995,4.99972120164681,-0.07088207331895803,0.005489864214267205,0
1021,0.04083999999999999,5.000049991798719,-0.07614271010627514,0.000261993869653844,0
1022,0.04088000000000003,5.000049991798719,-0.08337608563423975,-0.006938637119537242,0
1023,0.04092000000000007,5.000378781950543,-0.09455493859824966,-0.01808476761524997,0
1024,0.04096000000000011,5.000049991798719,-0.08929430192818714,-0.012791430713633572,0
1025,0.040999999999999925,5.000049991798719,-0.07515634071119788,0.0013792083321794782,0
1026,0.041039999999999965,5.000049991798719,-0.04523646850393555,0.031331735799830056,0
1027,0.041080000000000005,5.000049991798719,-0.06595022630053791,0.010650610529757312,0
1028,0.041120000000000045,5.000378781950543,-0.07811544889290346,-0.0014820024350769567,0
1029,0.041160000000000085,5.000049991798719,-0.08271850604340404,-0.006052473021899839,0
1030,0.0411999999999999,5.000049991798719,-0.07384118151593398,0.0028574148408246416,0
1031,0.04123999999999994,4.999392411494816,-0.06463506709067811,0.012096069208628456,0
1032,0.04127999999999998,5.000049991798719,-0.050168315645034,0.026595337040118606,0
1033,0.04132000000000002,5.000049991798719,-0.04523646850393555,0.03155967684665454,0
1034,0.04136000000000006,5.000049991798719,-0.05674411178783788,0.02008450234436425,0
1035,0.0414000000000001,5.000049991798719,-0.06430627728788789,0.012554781578974814,0
1036,0.04143999999999992,5.000049991798719,-0.06726538550831525,0.009628093883422617,0
1037,0.04147999999999996,5.001036362253937,-0.06200474866471477,0.014921126879571853,0
1038,0.04152,4.99972120164681,-0.04260615001678679,0.03435209714547528,0
1039,0.04156000000000004,4.999392411494816,-0.0491819462191435,0.02780864786456893,0
1040,0.04160000000000008,4.99972120164681,-0.057730481204784426,0.019292434942197616,0
1041,0.0416399999999999,4.99972120164681,-0.06858054471400928,0.008474668476703109,0
1042,0.04167999999999994,5.000049991798719,-0.07351239171679176,0.0035750933370513258,0
1043,0.04171999999999998,5.000049991798719,-0.06496385689333826,0.012155874682274699,0
1044,0.04176000000000002,5.000378781950543,-0.05510016275699865,0.022051789838562548,0
1045,0.04180000000000006,4.99972120164681,-0.04852436660123595,0.02865978135229233,0
1046,0.0418400000000001,5.000378781950543,-0.05378500352999273,0.0234313139596643,0
1047,0.04187999999999992,5.000378781950543,-0.06825175491278114,0.008996706131612457,0
1048,0.04191999999999996,5.000049991798719,-0.07318360191751903,0.004096976540969466,0
1049,0.04196,5.000378781950543,-0.07121086311914367,0.006101806453854032,0
1050,0.04200000000000004,5.000378781950543,-0.057730481204784426,0.01961425302449918,0
1051,0.04204000000000008,5.000378781950543,-0.05082589526164695,0.02655087700736917,0
1052,0.042079999999999895,5.000049991798719,-0.056415321981929514,0.02099346155224413,0
1053,0.042119999999999935,5.000049991798719,-0.06726538550831525,0.010175382358728901,0
1054,0.042159999999999975,4.999392411494816,-0.07121086311914367,0.0062618619910823625,0
1055,0.042200000000000015,5.000049991798719,-0.07088207331895803,0.006622581787671059,0
1056,0.042240000000000055,5.000378781950543,-0.060689589448612954,0.016846968250862578,0
1057,0.042280000000000095,5.000049991798719,-0.06233353846841526,0.015234894263885669,0
1058,0.04231999999999991,4.99972120164681,-0.06101837925283336,0.016581900796121735,0
1059,0.04235999999999995,5.000707572102282,-0.06858054471400928,0.009051554779593789,0
1060,0.04239999999999999,4.99972120164681,-0.07482755091257769,0.0028363399981483003,0
1061,0.04244000000000003,4.99972120164681,-0.050168315645034,0.027527338500088074,0
1062,0.04248000000000007,4.99972120164681,-0.048853156410254436,0.028874232631653132,0
1063,0.04252000000000011,5.000378781950543,-0.046880417554202566,0.030878677892315097,0
1064,0.04255999999999993,5.000378781950543,-0.05312742391571186,0.02466334928899551,0
1065,0.04259999999999997,5.000049991798719,-0.06858054471400928,0.009241877448543063,0
1066,0.04264000000000001,5.000707572102282,-0.08140334686016236,-0.0035493046937125385,0
1067,0.04268000000000005,4.99972120164681,-0.07745786929788322,0.00042776376523633725,0
1068,0.04272000000000009,5.000049991798719,-0.06134716905692379,0.016570025642681015,0
1069,0.04275999999999991,5.000049991798719,-0.04523646850393555,0.03271225841933771,0
1070,0.04279999999999995,4.99972120164681,-0.04096220095812057,0.037018028623697484,0
1071,0.04283999999999999,5.000049991798719,-0.04852436660123595,0.02948733592202274,0
1072,0.04288000000000003,4.99972120164681,-0.054771372950441696,0.023271772645500288,0
1073,0.04292000000000007,5.000049991798719,-0.046880417554202566,0.031194141094340343,0
1074,0.04296000000000011,5.000049991798719,-0.06496385689333826,0.013142084636727218,0
1075,0.04299999999999993,5.000378781950543,-0.053456213722917104,0.02468108036692654,0
1076,0.04303999999999997,5.000378781950543,-0.05279863410837703,0.02536998206916545,0
1077,0.04308000000000001,4.99972120164681,-0.06036079964426265,0.017839107998896334,0
1078,0.04312000000000005,4.99972120164681,-0.06956691411691203,0.008664254220110877,0
1079,0.04316000000000009,5.000049991798719,-0.07055328351864205,0.007709114591155728,0
1080,0.043199999999999905,5.000049991798719,-0.06397748748496758,0.014316109327514225,0
1081,0.043239999999999945,5.000378781950543,-0.048853156410254436,0.029471607886154327,0
1082,0.043279999999999985,5.000049991798719,-0.044907678693494255,0.03344822171975458,0
1083,0.043320000000000025,5.000049991798719,-0.04819557679208804,0.03019142822292136,0
1084,0.043360000000000065,4.99972120164681,-0.06595022630053791,0.012467851653497935,0
1085,0.043400000000000105,5.000378781950543,-0.08337608563423975,-0.004926966551227183,0
1086,0.04343999999999992,5.000049991798719,-0.1024458935402696,-0.02396576528530596,0
1087,0.04347999999999996,5.000049991798719,-0.059703220035172325,0.018807885288081437,0
1088,0.04352,4.99972120164681,-0.05279863410837703,0.025743416033212112,0
1089,0.04356000000000004,5.000378781950543,-0.046551627744407784,0.03202133481961038,0
1090,0.04360000000000008,5.000378781950543,-0.052469844300912574,0.026133998144019725,0
1091,0.0436399999999999,5.000049991798719,-0.06792296511142272,0.010711724527644184,0
1092,0.04367999999999994,4.99972120164681,-0.07186844271912378,0.006797061282378183,0
1093,0.04371999999999998,5.000378781950543,-0.06167595886088427,0.017020326526778665,0
1094,0.04376000000000002,5.000049991798719,-0.053456213722917104,0.025270819930404247,0
1095,0.04380000000000006,5.000378781950543,-0.05444258314375501,0.024315165510840564,0
1096,0.0438400000000001,5.000378781950543,-0.053456213722917104,0.025332216525034527,0
1097,0.04387999999999992,5.000378781950543,-0.06890933451510713,0.00990974377509684,0
1098,0.04391999999999996,4.99972120164681,-0.07186844271912378,0.0069812499193925084,0
1099,0.04396,5.000378781950543,-0.06200474866471477,0.01687552448568751,0
1100,0.04400000000000004,5.000049991798719,-0.05279863410837703,0.02611218557534939,0
1101,0.04404000000000008,4.99972120164681,-0.05838806081543309,0.020553271281271705,0
1102,0.0440799999999999,5.000378781950543,-0.06496385689333826,0.014007953354567487,0
1103,0.04411999999999994,5.001036362253937,-0.0820609264520449,-0.0030586724557941317,0
1104,0.04415999999999998,5.000049991798719,-0.08666398358056253,-0.007631320379547255,0
1105,0.04420000000000002,4.99972120164681,-0.07186844271912378,0.0071945950027057955,0
1106,0.04424000000000006,5.000707572102282,-0.06036079964426265,0.018732577774416944,0
1107,0.0442800000000001,5.000049991798719,-0.05378500352999273,0.025338678621914947,0
1108,0.044319999999999915,5.000707572102282,-0.060689589448612954,0.01846436233360035,0
1109,0.044359999999999955,5.000378781950543,-0.06890933451510713,0.010274851655546643,0
1110,0.044399999999999995,4.99972120164681,-0.07449876111382696,0.004715624064818041,0
1111,0.044440000000000035,4.99972120164681,-0.07022449371819571,0.009020054949766668,0
1112,0.044480000000000075,5.000049991798719,-0.06364869768191721,0.01562597881882435,0
1113,0.044520000000000115,4.999392411494816,-0.06101837925283336,0.018286389286645822,0
1114,0.04455999999999993,5.000378781950543,-0.06693659570656622,0.012398228940467305,0
1115,0.04459999999999997,4.99972120164681,-0.07449876111382696,0.0048660835727981685,0
1116,0.04464000000000001,4.999392411494816,-0.07877302848740105,0.0006218000344365773,0
1117,0.04468000000000005,4.99972120164681,-0.08337608563423975,-0.003951309617621329,0
1118,0.04472000000000009,5.000378781950543,-0.0715396529191989,0.007915034116080574,0
1119,0.04475999999999991,4.99972120164681,-0.06364869768191721,0.015835863760580784,0
1120,0.04479999999999995,5.000049991798719,-0.06036079964426265,0.019153599459054375,0
1121,0.04483999999999999,5.000049991798719,-0.06562143649826817,0.013922763384878032,0
1122,0.04488000000000003,5.000049991798719,-0.07680028970234042,0.002773673945421943,0
1123,0.04492000000000007,5.000378781950543,-0.0863351937865197,-0.006731503523209441,0
1124,0.04496000000000011,5.000378781950543,-0.07482755091257769,0.004805828683725484,0
1125,0.04499999999999993,5.000049991798719,-0.06693659570656622,0.012726435807057419,0
1126,0.04503999999999997,4.99972120164681,-0.07022449371819571,0.009468152164328456,0
1127,0.04508000000000001,5.000378781950543,-0.08173213665616903,-0.0020099140855411417,0
1128,0.04512000000000005,4.999392411494816,-0.09060946109885244,-0.010857699652923181,0
1129,0.04516000000000009,5.000049991798719,-0.08863672234206758,-0.008855459965272873,0
1130,0.04519999999999991,4.99972120164681,-0.08337608563423975,-0.003565360402276424,0
1131,0.04523999999999995,5.000378781950543,-0.07515634071119788,0.004683809169349493,0
1132,0.04527999999999999,5.000378781950543,-0.06825175491278114,0.01161778127925191,0
1133,0.04532000000000003,4.99972120164681,-0.06858054471400928,0.011318339322271755,0
1134,0.04536000000000007,4.999392411494816,-0.07712907950017713,0.0027991137833500938,0
1135,0.04540000000000011,5.000378781950543,-0.08567761419804089,-0.005720150393657478,0
1136,0.045439999999999925,4.999392411494816,-0.07943060808137585,0.0005560873884620336,0
1137,0.045479999999999965,5.000049991798719,-0.07318360191751903,0.006832286233737035,0
1138,0.045520000000000005,5.000378781950543,-0.07449876111382696,0.005546280606554202,0
1139,0.045560000000000045,4.99972120164681,-0.0820609264520449,-0.001986770402710206,0
1140,0.045600000000000085,5.001036362253937,-0.08107455706402487,-0.0009713260534077164,0
1141,0.0456399999999999,4.99972120164681,-0.08534882440360501,-0.005216557926496282,0
1142,0.04567999999999994,5.000378781950543,-0.08074576726775658,-0.0005845049456868808,0
1143,0.04571999999999998,5.000378781950543,-0.0791018182844538,0.0010884001346873062,0
1144,0.04576000000000002,5.000049991798719,-0.07943060808137585,0.0007885265609695082,0
1145,0.04580000000000006,4.999392411494816,-0.0791018182844538,0.0011461925816330827,0
1146,0.0458400000000001,5.000378781950543,-0.07811544889290346,0.0021613980722492952,0
1147,0.04587999999999992,4.99972120164681,-0.06529264669586828,0.015012996118844997,0
1148,0.04591999999999996,4.999392411494816,-0.07088207331895803,0.009452324971364497,0
1149,0.04596,5.000378781950543,-0.08567761419804089,-0.0053145009301218925,0
1150,0.04600000000000004,5.000378781950543,-0.08699277337447438,-0.00660098575064826,0
1151,0.04604000000000008,4.999392411494816,-0.08600640399234578,-0.005585982757592809,0
1152,0.0460799999999999,5.000049991798719,-0.08600640399234578,-0.005557390014550816,0
1153,0.04611999999999994,5.000707572102282,-0.0843624550195116,-0.0038848892890772854,0
1154,0.04615999999999998,4.99972120164681,-0.08797914275542355,-0.0074730663848828,0
1155,0.04620000000000002,5.000049991798719,-0.08699277337447438,-0.00645822759810247,0
1156,0.04624000000000006,5.000049991798719,-0.08666398358056253,-0.006101009753988649,0
1157,0.0462800000000001,4.99972120164681,-0.07811544889290346,0.00247591150727839,0
1158,0.04631999999999992,5.000049991798719,-0.07318360191751903,0.007436103459101605,0
1159,0.04635999999999996,5.000378781950543,-0.07186844271912378,0.008779565916581399,0
1160,0.0464,5.000378781950543,-0.0791018182844538,0.0015744517731872514,0
1161,0.04644000000000004,4.99972120164681,-0.0863351937865197,-0.005630704263494728,0
1162,0.04648000000000008,5.000049991798719,-0.08502003460903816,-0.004287367696192745,0
1163,0.046519999999999895,5.000378781950543,-0.0863351937865197,-0.005574391678036606,0
1164,0.046559999999999935,4.999392411494816,-0.08896551213519292,-0.008176617143481385,0
1165,0.046599999999999975,5.000378781950543,-0.08600640399234578,-0.005189458547648202,0
1166,0.046640000000000015,5.000049991798719,-0.08567761419804089,-0.004832660848038825,0
1167,0.046680000000000055,5.000707572102282,-0.07416997131494572,0.006702947275634601,0
1168,0.046720000000000095,4.99972120164681,-0.08995188151378213,-0.009051040463999478,0
1169,0.04675999999999991,5.000378781950543,-0.08600640399234578,-0.005077683380991108,0
1170,0.04679999999999995,5.000049991798719,-0.07811544889290346,0.002841108266534496,0
1171,0.04683999999999999,5.000049991798719,-0.07449876111382696,0.0064855894647435075,0
1172,0.04688000000000003,5.000378781950543,-0.07055328351864205,0.010458817235045093,0
1173,0.04692000000000007,5.000049991798719,-0.0840336652245519,-0.002993857654431482,0
1174,0.04696000000000011,5.000049991798719,-0.09258219985091413,-0.011514728937313602,0
1175,0.04699999999999993,5.000049991798719,-0.09060946109885244,-0.009514370428596281,0
1176,0.04703999999999997,5.000049991798719,-0.09093825089119083,-0.009815584164575956,0
1177,0.04708000000000001,4.999392411494816,-0.09323977943388458,-0.012089580464281007,0
1178,0.04712000000000005,5.000049991798719,-0.0843624550195116,-0.0031847677329625585,0
1179,0.04716000000000009,4.999063621342738,-0.08469124481434036,-0.003486113249162038,0
1180,0.04719999999999991,5.000378781950543,-0.08797914275542355,-0.006746611061804575,0
1181,0.04723999999999995,5.000049991798719,-0.0840336652245519,-0.0027737776641521992,0
1182,0.04727999999999999,4.999063621342738,-0.08732156316825516,-0.006034364113804598,0
1183,0.04732000000000003,5.001365152405508,-0.08600640399234578,-0.004691937927242285,0
1184,0.04736000000000007,4.998734831190575,-0.08995188151378213,-0.008610193031689488,0
1185,0.04740000000000011,4.999063621342738,-0.09126704068339796,-0.009898174487843185,0
1186,0.04743999999999993,4.99972120164681,-0.09225341005923197,-0.010857410963202283,0
1187,0.04747999999999997,5.002351522859708,-0.09652767734085597,-0.015104590266395336,0
1188,0.04752000000000001,4.999392411494816,-0.08830793254881113,-0.00685780252661645,0
1189,0.04756000000000005,4.998406041038327,-0.08732156316825516,-0.005844435337271969,0
1190,0.04760000000000009,4.999063621342738,-0.08502003460903816,-0.003515954216055839,0
1191,0.047639999999999905,5.001693942556992,-0.08271850604340404,-0.0011875184426507635,0
1192,0.047679999999999945,4.998734831190575,-0.08699277337447438,-0.0054349240272116225,0
1193,0.047719999999999985,5.000049991798719,-0.08797914275542355,-0.006394477229540358,0
1194,0.047760000000000025,5.000049991798719,-0.09356856922517286,-0.011957133194779538,0
1195,0.047800000000000065,5.000049991798719,-0.08863672234206758,-0.006998561587089215,0
1196,0.047840000000000105,5.000049991798719,-0.08666398358056253,-0.0049991439863319165,0
1197,0.04787999999999992,5.000049991798719,-0.08502003460903816,-0.003328562165888533,0
1198,0.04791999999999996,4.99972120164681,-0.08337608563423975,-0.0016580264370970573,0
1199,0.04796,5.000378781950543,-0.08600640399234578,-0.0042618042403206775,0
1200,0.04800000000000004,5.000049991798719,-0.09258219985091413,-0.010811105846893468,0
1201,0.04804000000000008,4.999392411494816,-0.08797914275542355,-0.006181600905661621,0
1202,0.0480799999999999,5.000049991798719,-0.0840336652245519,-0.00220972203826127,0
1203,0.04811999999999994,5.000378781950543,-0.08370487542946127,-0.001854577518403423,0
1204,0.04815999999999998,4.99972120164681,-0.08765035296190492,-0.005773747039980412,0
1205,0.04820000000000002,5.000049991798719,-0.09225341005923197,-0.010350542942070278,0
1206,0.04824000000000006,5.000049991798719,-0.09323977943388458,-0.011310698038433509,0
1207,0.0482800000000001,5.000049991798719,-0.09028067130638286,-0.008325422650497615,0
1208,0.04831999999999992,5.000378781950543,-0.08600640399234578,-0.004025035194377652,0
1209,0.04835999999999996,4.999392411494816,-0.08238971624778989,-0.0003822745261745659,0
1210,0.0484,4.99972120164681,-0.08271850604340404,-0.000685038716249693,0
1211,0.04844000000000004,5.000378781950543,-0.07778665909545869,0.004272786419866262,0
1212,0.04848000000000008,5.000049991798719,-0.10113073438852911,-0.019045358201249744,0
1213,0.0485199999999999,5.000049991798719,-0.09521251817964406,-0.01310125893506155,0
1214,0.04855999999999994,5.000049991798719,-0.08962309172105022,-0.007485997131837807,0
1215,0.04859999999999998,5.000378781950543,-0.08600640399234578,-0.0038435218687853656,0
1216,0.04864000000000002,5.000378781950543,-0.08962309172105022,-0.0074344699706188,0
1217,0.04868000000000006,5.000378781950543,-0.09422614880735543,-0.01201183543431112,0
1218,0.0487200000000001,5.000378781950543,-0.10113073438852911,-0.01889077749349692,0
1219,0.048759999999999915,5.000049991798719,-0.09258219985091413,-0.010316647630471524,0
1220,0.048799999999999955,4.99972120164681,-0.08797914275542355,-0.0056880435016854495,0
1221,0.048839999999999995,5.000049991798719,-0.07943060808137585,0.002885989818420552,0
1222,0.048880000000000035,5.000378781950543,-0.08732156316825516,-0.004979515104344514,0
1223,0.048920000000000075,5.000049991798719,-0.09488372838901253,-0.01251627873722282,0
1224,0.048960000000000115,4.99972120164681,-0.10047315481186896,-0.018080352242310596,0
1225,0.04899999999999993,4.999392411494816,-0.09455493859824966,-0.012136831874492052,0
1226,0.04903999999999997,4.999392411494816,-0.09060946109885244,-0.008166099077507342,0
1227,0.04908000000000001,5.000049991798719,-0.08271850604340404,-0.0002499376737087871,0
1228,0.04912000000000005,4.999392411494816,-0.09225341005923197,-0.00975968438263241,0
1229,0.04916000000000009,5.000378781950543,-0.09356856922517286,-0.011049735374906123,0
1230,0.04919999999999991,5.000049991798719,-0.09948678544589158,-0.016942892646568584,0
1231,0.04923999999999995,4.99972120164681,-0.09159583047547391,-0.009026928042661536,0
1232,0.04927999999999999,5.000049991798719,-0.10211710375253198,-0.019523241092335164,0
1233,0.04932000000000003,5.000378781950543,-0.10606258119668784,-0.023443807805331472,0
1234,0.04936000000000007,5.000049991798719,-0.1024458935402696,-0.01980225900368006,0
1235,0.04940000000000011,5.000049991798719,-0.10474742205074437,-0.02207897604413091,0
1236,0.04943999999999993,5.000049991798719,-0.11428232581100171,-0.03158911809843768,0
1237,0.04947999999999997,5.000378781950543,-0.11592627472395621,-0.03320835515796002,0
1238,0.04952000000000001,5.000378781950543,-0.1100080586218566,-0.027265477142972543,0
1239,0.04956000000000005,5.000049991798719,-0.10047315481186896,-0.017705961448247848,0
1240,0.04960000000000009,5.000378781950543,-0.11263837689474214,-0.029846621761721693,0
1241,0.049639999999999906,5.000049991798719,-0.11428232581100171,-0.03146605911068676,0
1242,0.049679999999999946,5.000378781950543,-0.12480359879672413,-0.041962870817566694,0
1243,0.049719999999999986,5.000049991798719,-0.12283086012223408,-0.03996572123861301,0
1244,0.049760000000000026,5.000049991798719,-0.11691264407014172,-0.03402314474194232,0
1245,0.049800000000000066,5.000049991798719,-0.11099442797517921,-0.028080618747372773,0
1246,0.049840000000000106,5.000049991798719,-0.10967926883715166,-0.026741200339374896,0
1247,0.049879999999999924,5.000378781950543,-0.11658385428821218,-0.0336215772343466,0
1248,0.049919999999999964,5.000049991798719,-0.126118757910398,-0.043132323098149086,0
1249,0.049960000000000004,5.000049991798719,-0.1251323885753416,-0.042121846885817806,0
1250,0.050000000000000044,5.000049991798719,-0.11132321775935598,-0.02828862015664759,0
1251,0.050040000000000084,5.000049991798719,-0.09488372838901253,-0.011825125919770045,0
1252,0.0500799999999999,5.000049991798719,-0.09850041607873007,-0.015417859871742493,0
1253,0.05011999999999994,4.99972120164681,-0.11592627472395621,-0.03281981598972912,0
1254,0.05015999999999998,4.99972120164681,-0.1277627067995044,-0.04463239682983779,0
1255,0.05020000000000002,5.000378781950543,-0.13203697389564184,-0.04888286406320782,0
1256,0.05024000000000006,5.000378781950543,-0.1251323885753416,-0.0419545303332621,0
1257,0.0502800000000001,5.000707572102282,-0.11296716667825839,-0.029765611559682655,0
1258,0.05031999999999992,5.000378781950543,-0.10573379141039972,-0.02250859102808153,0
1259,0.05035999999999996,4.99972120164681,-0.1100080586218566,-0.026759264667731476,0
1260,0.0504,5.000378781950543,-0.11493990537658023,-0.031667569621342435,0
1261,0.05044000000000004,5.000378781950543,-0.1106656381908704,-0.02736981248354972,0
1262,0.05048000000000008,5.000378781950543,-0.11329595646164246,-0.029976692729180982,0
1263,0.0505199999999999,5.000378781950543,-0.11099442797517921,-0.02765177822200792,0
1264,0.05055999999999994,4.999392411494816,-0.11428232581100171,-0.030916342118616977,0
1265,0.05059999999999998,5.000049991798719,-0.12480359879672413,-0.04141433332326394,0
1266,0.05064000000000002,5.000049991798719,-0.1336809227727903,-0.05026842775261047,0
1267,0.05068000000000006,5.000049991798719,-0.1330233432223299,-0.049587670965580276,0
1268,0.0507200000000001,5.000049991798719,-0.1267763374664388,-0.043317540358639633,0
1269,0.050759999999999916,5.000049991798719,-0.10935047905231472,-0.025868609553932644,0
1270,0.050799999999999956,4.999392411494816,-0.10145952417666172,-0.017954634822685767,0
1271,0.050839999999999996,5.000707572102282,-0.11132321775935598,-0.02779536115887342,0
1272,0.050880000000000036,5.000049991798719,-0.12184449078319924,-0.038293719618971225,0
1273,0.050920000000000076,4.99972120164681,-0.12940665568529136,-0.04583302271332859,0
1274,0.050960000000000116,5.000049991798719,-0.12414601923909123,-0.040549577288229444,0
1275,0.050999999999999934,5.000049991798719,-0.1106656381908704,-0.02704644016234577,0
1276,0.051039999999999974,4.99972120164681,-0.10080194460026483,-0.017160043467289245,0
1277,0.051080000000000014,4.99972120164681,-0.10408984247698179,-0.02042529128431817,0
1278,0.051120000000000054,5.000049991798719,-0.11658385428821218,-0.032896706151749756,0
1279,0.051160000000000094,4.99972120164681,-0.13565366142097834,-0.05194396952730778,0
1280,0.05119999999999991,5.000049991798719,-0.13433850232271854,-0.05060631992870718,0
1281,0.05123999999999995,5.000049991798719,-0.12480359879672413,-0.04104897922909089,0
1282,0.05127999999999999,5.000049991798719,-0.10211710375253198,-0.018340100407422247,0
1283,0.05132000000000003,4.99972120164681,-0.10014436502334141,-0.01634503136590191,0
1284,0.05136000000000007,5.000049991798719,-0.11691264407014172,-0.033091033634095254,0
1285,0.05140000000000011,5.000049991798719,-0.13006423523867633,-0.046220401625896634,0
1286,0.05143999999999993,5.000378781950543,-0.13400971254782096,-0.050143709427907426,0
1287,0.05147999999999997,5.000049991798719,-0.12283086012223408,-0.03894274123208637,0
1288,0.05152000000000001,4.99972120164681,-0.11230958711109378,-0.028399406254486396,0
1289,0.05156000000000005,4.999392411494816,-0.10672016076886852,-0.022787971816025442,0
1290,0.05160000000000009,5.000378781950543,-0.11099442797517921,-0.027040284862348257,0
1291,0.05163999999999991,5.000049991798719,-0.12151570100325589,-0.0375396577322832,0
1292,0.05167999999999995,5.000378781950543,-0.12874907613137498,-0.04475118676927933,0
1293,0.05171999999999999,5.000049991798719,-0.1136247462448944,-0.029605064923441483,0
1294,0.05176000000000003,4.99972120164681,-0.09915799565696932,-0.01511657657224598,0
1295,0.05180000000000007,5.000707572102282,-0.09323977943388458,-0.009176676845873184,0
1296,0.05184000000000011,5.000378781950543,-0.0998155752346823,-0.015730843466835065,0
1297,0.051879999999999926,4.99972120164681,-0.11855659297780442,-0.03445028641661772,0
1298,0.051919999999999966,5.000049991798719,-0.12283086012223408,-0.038703033216822835,0
1299,0.051960000000000006,5.000049991798719,-0.11296716667825839,-0.02881787393993045,0
1300,0.052000000000000046,5.000378781950543,-0.09488372838901253,-0.010713024390843078,0
1301,0.052040000000000086,5.000378781950543,-0.07975939787816717,0.0044326627454269255,0
1302,0.052079999999999904,5.000049991798719,-0.08337608563423975,0.0008372769194459617,0
1303,0.052119999999999944,5.000049991798719,-0.10869289948224485,-0.024458289754291096,0
1304,0.052159999999999984,5.000049991798719,-0.12283086012223408,-0.03857505803590074,0
1305,0.052200000000000024,5.000049991798719,-0.11789901341513638,-0.03362207384595123,0
1306,0.052240000000000064,4.99972120164681,-0.10145952417666172,-0.017161502059366132,0
1307,0.052280000000000104,5.000049991798719,-0.09060946109885244,-0.006290411426975943,0
1308,0.05231999999999992,5.000049991798719,-0.08962309172105022,-0.0052830695464848795,0
1309,0.05235999999999996,5.001036362253937,-0.10145952417666172,-0.017098584609236574,0
1310,0.0524,5.000378781950543,-0.11526869515917111,-0.030886893366226634,0
1311,0.05244000000000004,4.999392411494816,-0.11263837689474214,-0.02823576810070461,0
1312,0.05248000000000008,5.000378781950543,-0.09882920586791545,-0.014405845353871375,0
1313,0.0525199999999999,5.000378781950543,-0.0820609264520449,0.0023831304446844358,0
1314,0.05255999999999994,5.000049991798719,-0.08502003460903816,-0.0005553367227541031,0
1315,0.05259999999999998,4.99972120164681,-0.10343226290269213,-0.018946979475367755,0
1316,0.05264000000000002,5.000707572102282,-0.11789901341513638,-0.033393199950244756,0
1317,0.05268000000000006,5.000378781950543,-0.1182278031965366,-0.03370151525208412,0
1318,0.0527200000000001,4.99972120164681,-0.10704895055476103,-0.022502243742862235,0
1319,0.05275999999999992,5.000378781950543,-0.09126704068339796,-0.006699970669850237,0
1320,0.05279999999999996,4.99972120164681,-0.0840336652245519,0.0005537122715895022,0
1321,0.05284,5.000378781950543,-0.09225341005923197,-0.007645780852384907,0
1322,0.05288000000000004,5.000049991798719,-0.1103368484064295,-0.025709023313172617,0
1323,0.05292000000000008,5.000378781950543,-0.11428232581100171,-0.029634360707613987,0
1324,0.052959999999999896,4.99972120164681,-0.10211710375253198,-0.017449054566850784,0
1325,0.052999999999999936,4.99972120164681,-0.08600640399234578,-0.00131832670334232,0
1326,0.053039999999999976,4.99972120164681,-0.08502003460903816,-0.00031198524639310457,0
1327,0.053080000000000016,4.99972120164681,-0.09389735901632983,-0.009169393660009016,0
1328,0.053120000000000056,5.000707572102282,-0.10836410969701198,-0.023616284476842202,0
1329,0.053160000000000096,5.000049991798719,-0.1182278031965366,-0.03346017429178141,0
1330,0.053199999999999914,5.000378781950543,-0.1106656381908704,-0.02587826182980586,0
1331,0.053239999999999954,5.000707572102282,-0.09192462026741856,-0.007117552726909036,0
1332,0.053279999999999994,4.99972120164681,-0.0791018182844538,0.005724884110472093,0
1333,0.053320000000000034,5.000049991798719,-0.08929430192818714,-0.004448021051613803,0
1334,0.053360000000000074,5.000049991798719,-0.10113073438852911,-0.016264931450393746,0
1335,0.053400000000000114,4.99972120164681,-0.11559748494162976,-0.030712216408910684,0
1336,0.05343999999999993,5.000049991798719,-0.1136247462448944,-0.028720068631039278,0
1337,0.05347999999999997,5.000378781950543,-0.09587009776051285,-0.010946067625015259,0
1338,0.05352000000000001,5.000049991798719,-0.08600640399234578,-0.0010630779403219028,0
1339,0.05356000000000005,5.000049991798719,-0.08896551213519292,-0.00400294681695839,0
1340,0.05360000000000009,5.000049991798719,-0.09948678544589158,-0.014505037556538508,0
1341,0.05363999999999991,4.999392411494816,-0.11099442797517921,-0.025993554254153367,0
1342,0.05367999999999995,4.99972120164681,-0.10869289948224485,-0.02367295671292306,0
1343,0.05371999999999999,5.000049991798719,-0.09422614880735543,-0.009187193816622868,0
1344,0.05376000000000003,5.000378781950543,-0.08337608563423975,0.0016818247079323882,0
1345,0.05380000000000007,5.000049991798719,-0.08600640399234578,-0.0009295952113690283,0
1346,0.05384000000000011,5.000049991798719,-0.10145952417666172,-0.016363873911757115,0
1347,0.05387999999999993,4.99972120164681,-0.11526869515917111,-0.030154260407035574,0
1348,0.05391999999999997,4.999063621342738,-0.11691264407014172,-0.031779481868870654,0
1349,0.05396000000000001,5.000707572102282,-0.10178831396466272,-0.016636481393328628,0
1350,0.05400000000000005,5.000049991798719,-0.08337608563423975,0.0017943601875290427,0
1351,0.05404000000000009,5.000707572102282,-0.0791018182844538,0.00608718362798652,0
1352,0.054079999999999906,5.000049991798719,-0.09060946109885244,-0.005401960295217764,0
1353,0.054119999999999946,4.999063621342738,-0.10836410969701198,-0.02313816724095336,0
1354,0.054159999999999986,5.000707572102282,-0.11493990537658023,-0.029695578545740873,0
1355,0.054200000000000026,4.998734831190575,-0.10967926883715166,-0.0244166149476271,0
1356,0.054240000000000066,5.000707572102282,-0.08765035296190492,-0.002369429367823004,0
1357,0.054280000000000106,5.000049991798719,-0.08041697747135755,0.004882158435541593,0
1358,0.054319999999999924,5.000707572102282,-0.09060946109885244,-0.005292170308068819,0
1359,0.054359999999999964,5.000378781950543,-0.10902168926734575,-0.023686301058383586,0
1360,0.054400000000000004,4.99972120164681,-0.12118691122318002,-0.03583348309809923,0
1361,0.054440000000000044,5.000049991798719,-0.10770653012615032,-0.022335119622945678,0
1362,0.054480000000000084,4.999392411494816,-0.08666398358056253,-0.0012746482727448126,0
1363,0.0545199999999999,5.000378781950543,-0.07449876111382696,0.010908441389995645,0
1364,0.05455999999999994,5.000378781950543,-0.08173213665616903,0.0036928754003711615,0
1365,0.05459999999999998,5.000378781950543,-0.10672016076886852,-0.02127739683715907,0
1366,0.05464000000000002,5.000049991798719,-0.12217328056301004,-0.03671282246752284,0
1367,0.05468000000000006,4.99972120164681,-0.11757022363360382,-0.032092129119156036,0
1368,0.0547200000000001,4.99972120164681,-0.09817162628941313,-0.012675953133830166,0
1369,0.05475999999999992,5.000707572102282,-0.08041697747135755,0.005096216514943779,0
1370,0.05479999999999996,5.000378781950543,-0.0840336652245519,0.0014969917498762857,0
1371,0.05484,5.000049991798719,-0.10145952417666172,-0.015911462088456407,0
1372,0.05488000000000004,5.000049991798719,-0.11757022363360382,-0.03200481433731305,0
1373,0.05492000000000008,5.000378781950543,-0.11888538275893985,-0.03330268419118113,0
1374,0.0549599999999999,4.99972120164681,-0.09817162628941313,-0.012571696417313993,0
1375,0.05499999999999994,5.000707572102282,-0.08074576726775658,0.004871335911461071,0
1376,0.05503999999999998,5.000378781950543,-0.08107455706402487,0.004559661395410329,0
1377,0.05508000000000002,5.000378781950543,-0.09948678544589158,-0.013835509762403846,0
1378,0.05512000000000006,4.999392411494816,-0.11987175210155175,-0.03420347727902592,0
1379,0.0551600000000001,5.000049991798719,-0.11921417253994292,-0.03352895669182861,0
1380,0.055199999999999916,5.000049991798719,-0.10113073438852911,-0.01542863565629703,0
1381,0.055239999999999956,4.99972120164681,-0.08337608563423975,0.0023428378130320934,0
