,seconds,Trig,EMG_amplitude,EMG_amplitude_filter,peaks
0,0.0,5.000049991798719,0.3384613245394841,-0.044446055282744534,0
1,4.0000000000040004e-05,5.000378781950543,0.3502977628752965,-0.05687072260012427,0
2,8.000000000008001e-05,5.000378781950543,0.3565447720557949,-0.06370574193198256,0
3,0.00011999999999989797,5.000707572102282,0.35457203231020334,-0.0623207914612561,0
4,0.00015999999999993797,5.000378781950543,0.3486538130977006,-0.05699013860283131,0
5,0.00019999999999997797,5.001036362253937,0.3374749546847677,-0.04639862158090757,0
6,0.00024000000000001798,5.000049991798719,0.3177475578045831,-0.027258339088408523,0
7,0.000280000000000058,4.999063621342738,0.3009792707786314,-0.011076937408605492,0
8,0.000320000000000098,5.000378781950543,0.2779639753463067,0.011351703755262954,0
9,0.00035999999999991594,5.000707572102282,0.252975940946795,0.03575331699809298,0
10,0.00039999999999995595,5.000378781950543,0.22404242827352536,0.06410064365844831,0
11,0.00043999999999999595,5.000378781950543,0.20135592465620678,0.08620119843650831,0
12,0.00048000000000003595,5.000378781950543,0.16880572480317563,0.11816568865170457,0
13,0.000520000000000076,5.000707572102282,0.14381769339134592,0.14256825165275572,0
14,0.0005599999999998939,5.001365152405508,0.11850087280679227,0.16729984707706808,0
15,0.0005999999999999339,5.000378781950543,0.09121131376835284,0.1940044262271184,0
16,0.0006399999999999739,5.000378781950543,0.06951118309156513,0.2151198243065015,0
17,0.0006800000000000139,5.000378781950543,0.046495893572083224,0.2375506305364979,0
18,0.0007200000000000539,5.000707572102282,0.029070031915759978,0.25439226022597605,0
19,0.0007600000000000939,4.99972120164681,0.013945699444547363,0.26893261406547686,0
20,0.0007999999999999119,5.000378781950543,0.0004653163810297567,0.28182927384266643,0
21,0.0008399999999999519,5.000378781950543,-0.00808321910937683,0.2897943434001208,0
22,0.0008799999999999919,5.000049991798719,-0.01564538504817102,0.2967733027650581,0
23,0.0009200000000000319,5.000049991798719,-0.020577232363083744,0.30112220486864083,0
24,0.0009600000000000719,5.000049991798719,-0.026166659285104213,0.30612894994298456,0
25,0.001000000000000112,5.000378781950543,-0.033071245431629134,0.3124511196042926,0
26,0.0010399999999999299,4.99972120164681,-0.03964704170886384,0.31844476675524225,0
27,0.0010799999999999699,5.000378781950543,-0.046880417554202566,0.3250962628273505,0
28,0.0011200000000000099,5.000707572102282,-0.05082589526164695,0.3284601321063758,0
29,0.0011600000000000499,5.000707572102282,-0.053456213722917104,0.3305091154734142,0
30,0.0012000000000000899,5.000378781950543,-0.060689589448612954,0.3371614314260454,0
31,0.0012399999999999078,4.99972120164681,-0.06562143649826817,0.3415124960083721,0
32,0.0012799999999999478,5.000378781950543,-0.07186844271912378,0.34717899904977945,0
33,0.0013199999999999878,5.000049991798719,-0.07877302848740105,0.3535033629061911,0
34,0.0013600000000000279,4.999392411494816,-0.08929430192818714,0.36344469767993925,0
35,0.0014000000000000679,5.000378781950543,-0.09915799565696932,0.37272873796128425,0
36,0.0014400000000001079,5.000378781950543,-0.1106656381908704,0.38365701423963494,0
37,0.0014799999999999258,5.000049991798719,-0.12184449078319924,0.394256789738084,0
38,0.0015199999999999658,5.000049991798719,-0.13170818411981328,0.4035416971097555,0
39,0.0015600000000000058,5.001036362253937,-0.14551735458997894,0.4167723747086517,0
40,0.0016000000000000458,5.000049991798719,-0.15472346810596177,0.42540029040922844,0
41,0.0016400000000000858,4.99972120164681,-0.16491595080474653,0.4350148723080999,0
42,0.0016799999999999038,5.000049991798719,-0.17412206409913766,0.4436433837751237,0
43,0.0017199999999999438,5.000049991798719,-0.18069785924475862,0.44964187802038613,0
44,0.0017599999999999838,5.001693942556992,-0.1869448645830749,0.45531188533721023,0
45,0.0018000000000000238,5.000378781950543,-0.19319186987255288,0.46098219743330104,0
46,0.0018400000000000638,5.000049991798719,-0.20502830081307927,0.4722422419551491,0
47,0.0018800000000001038,5.001036362253937,-0.21061772647374233,0.4772555899157981,0
48,0.0019199999999999218,5.000049991798719,-0.21620715209501734,0.482269248497015,0
49,0.0019599999999999618,5.000049991798719,-0.21916625976089943,0.4846529017214076,0
50,0.0020000000000000018,5.000049991798719,-0.2260708442715611,0.490982346325068,0
51,0.0020400000000000418,5.000049991798719,-0.22870116216450587,0.4930378407787108,0
52,0.002080000000000082,5.000378781950543,-0.23133148004867887,0.4950936536217706,0
53,0.0021199999999998997,5.000378781950543,-0.2316602697835834,0.4948482586415036,0
54,0.0021599999999999397,4.99972120164681,-0.23330421845604804,0.4959183448497405,1
55,0.0021999999999999797,4.999392411494816,-0.2316602697835834,0.49370085788622964,0
56,0.0022400000000000198,5.000378781950543,-0.22902995190050734,0.4904973278047481,0
57,0.0022800000000000598,5.000378781950543,-0.2270572134824429,0.4879517051975837,0
58,0.0023200000000000998,5.000378781950543,-0.22278294689305583,0.48310488434225907,0
59,0.0023599999999999177,4.99972120164681,-0.2171935213182073,0.47694323633566943,0
60,0.0023999999999999577,5.000049991798719,-0.21456320338697038,0.4737410297150848,0
61,0.0024399999999999977,5.000378781950543,-0.20930256749830378,0.4679088407848097,0
62,0.0024800000000000377,5.001036362253937,-0.20338435208186884,0.4614194098769865,0
63,0.0025200000000000777,5.000378781950543,-0.19615097762417932,0.4536151593777329,0
64,0.0025599999999998957,5.000378781950543,-0.18760244408953197,0.444496091148058,0
65,0.0025999999999999357,5.000378781950543,-0.17740996167869222,0.43373341728253334,0
66,0.0026399999999999757,5.000049991798719,-0.1695190074651277,0.42527261674551153,0
67,0.0026800000000000157,5.000049991798719,-0.1619568429377366,0.41714095291384157,0
68,0.0027200000000000557,5.000707572102282,-0.148805252286292,0.40342021186229726,0
69,0.0027600000000000957,5.000378781950543,-0.13894155915730816,0.3929877191194299,0
70,0.0027999999999999137,4.999392411494816,-0.12447480901797399,0.37795252203148755,0
71,0.0028399999999999537,5.000049991798719,-0.11625506450615032,0.36916468511239836,0
72,0.0028799999999999937,5.000049991798719,-0.10507621183742798,0.35741809645081496,0
73,0.0029200000000000337,5.000378781950543,-0.09159583047547391,0.3433703373804459,0
74,0.0029600000000000737,5.000049991798719,-0.08502003460903816,0.33622752395704886,0
75,0.0029999999999998916,5.000378781950543,-0.07745786929788322,0.328098703104346,0
76,0.0030399999999999316,5.000049991798719,-0.07219723251891826,0.3222717746601442,0
77,0.0030799999999999716,5.000378781950543,-0.06101837925283336,0.3105269954629547,0
78,0.0031200000000000117,5.000378781950543,-0.05674411178783788,0.3056871696557176,0
79,0.0031600000000000517,5.000378781950543,-0.054113793336938706,0.30249166230306623,0
80,0.0032000000000000917,5.000378781950543,-0.0491819462191435,0.2969949975725163,0
81,0.0032399999999999096,4.999392411494816,-0.047537997173404054,0.29478660404839485,0
82,0.0032799999999999496,5.000049991798719,-0.044907678693494255,0.2915922160667047,0
83,0.0033199999999999896,4.99972120164681,-0.04359251945043667,0.2897133641375369,0
84,0.0033600000000000296,5.000378781950543,-0.04622283793448369,0.291780368587038,0
85,0.0034000000000000696,5.000378781950543,-0.042277360205311795,0.28727195730759036,0
86,0.0034400000000001096,5.000378781950543,-0.04129099077011207,0.28572303663588877,0
87,0.0034799999999999276,4.99972120164681,-0.0383318824575425,0.2822017612268789,0
88,0.0035199999999999676,5.000049991798719,-0.0383318824575425,0.28163998009355873,0
89,0.0035600000000000076,5.000378781950543,-0.035372774134525484,0.278119478420158,0
90,0.0036000000000000476,5.000049991798719,-0.03964704170886384,0.28183274224360977,0
91,0.0036400000000000876,5.000049991798719,-0.03635914357669136,0.27798423177333964,0
92,0.0036799999999999056,5.000378781950543,-0.03274245561641449,0.27380732469776303,0
93,0.0037199999999999456,5.000049991798719,-0.031756086169998185,0.27226113116555806,0
94,0.0037599999999999856,5.000049991798719,-0.029454557457189598,0.2694001751998754,0
95,0.0038000000000000256,5.000378781950543,-0.025837869467188898,0.26522445858999655,0
96,0.0038400000000000656,5.000378781950543,-0.022221181461645576,0.2610491423943168,0
97,0.0038800000000001056,5.001036362253937,-0.021563601822605624,0.25983333678827963,0
98,0.0039199999999999235,5.000378781950543,-0.020577232363083744,0.2582891453749353,0
99,0.0039599999999999635,5.000049991798719,-0.01564538504817102,0.2527998819060349,0
100,0.0040000000000000036,5.000049991798719,-0.010713537704454032,0.24731102599143592,0
101,0.0040400000000000436,5.000049991798719,-0.007096849634115457,0.24313773871318944,0
102,0.0040800000000000836,5.000378781950543,-0.002165002240582567,0.23764970325117554,0
103,0.0041199999999999015,5.000049991798719,0.0027668451816259126,0.23216208067293703,0
104,0.0041599999999999415,5.000707572102282,0.003424424840084442,0.2309491405404814,0
105,0.0041999999999999815,4.99972120164681,0.009342641789095676,0.22447597956563295,0
106,0.0042400000000000215,5.000378781950543,0.012301750279031881,0.22096234526067823,0
107,0.0042800000000000615,5.000049991798719,0.011644170613713423,0.2210658190809746,0
108,0.0043200000000001015,5.000378781950543,0.016904807950460177,0.21525149762488574,0
109,0.0043599999999999195,5.000378781950543,0.016576018115963126,0.21502702681789668,0
110,0.0043999999999999595,4.999392411494816,0.014932068945377922,0.21611814057350737,0
111,0.0044399999999999995,4.99972120164681,0.012630540111881347,0.21786726096366307,0
112,0.0044800000000000395,5.000049991798719,0.011972960446309217,0.21797286089910364,0
113,0.0045200000000000795,4.999392411494816,0.01032901128459894,0.21906526078190827,0
114,0.0045599999999998975,5.000707572102282,0.007041112970698912,0.22180204200257347,0
115,0.0045999999999999375,5.000378781950543,0.001780475694892425,0.22651199610167644,0
116,0.0046399999999999775,5.000707572102282,0.0004653163810297567,0.22727690788263047,0
117,0.0046800000000000175,5.000378781950543,-0.005124110680146385,0.2323165247783469,0
118,0.0047200000000000575,5.000378781950543,-0.00874079875891258,0.2353838417791342,0
119,0.0047600000000000975,5.000378781950543,-0.01860449344057817,0.2446986061866992,0
120,0.0047999999999999154,5.000049991798719,-0.024522710194243194,0.25006833518289295,0
121,0.0048399999999999554,5.000049991798719,-0.030112137090063842,0.25510971854696374,0
122,0.0048799999999999955,5.000049991798719,-0.0383318824575425,0.26278186631383443,0
123,0.0049200000000000355,5.000378781950543,-0.04359251945043667,0.2674953533389992,0
124,0.0049600000000000755,5.000378781950543,-0.05082589526164695,0.2741820285133992,0
125,0.004999999999999893,5.001036362253937,-0.054771372950441696,0.27758125659063504,0
126,0.005039999999999933,5.000049991798719,-0.06364869768191721,0.28591278442641477,0
127,0.005079999999999973,5.000049991798719,-0.07088207331895803,0.2926008175705014,0
128,0.005120000000000013,4.99972120164681,-0.07548513050968754,0.29665898835415117,0
129,0.005160000000000053,5.000049991798719,-0.08238971624778989,0.30301914545042336,0
130,0.0052000000000000934,4.99972120164681,-0.08765035296190492,0.30773581296356345,0
131,0.005239999999999911,4.99972120164681,-0.09291098964246501,0.31245294155582826,0
132,0.005279999999999951,5.000049991798719,-0.09751404671038476,0.31651295331616336,0
133,0.005319999999999991,4.99972120164681,-0.10178831396466272,0.32024463970779316,0
134,0.005360000000000031,5.000378781950543,-0.10737774034052165,0.3252919513263491,0
135,0.005400000000000071,5.000378781950543,-0.1116520075434007,0.32902457153385023,0
136,0.005440000000000111,4.99972120164681,-0.11625506450615032,0.33308645091588673,0
137,0.005479999999999929,5.000049991798719,-0.11789901341513638,0.33418969330771203,0
138,0.005519999999999969,5.000049991798719,-0.11757022363360382,0.33332066971759444,0
139,0.005560000000000009,4.99972120164681,-0.12315964990164728,0.33837033652677667,0
140,0.005600000000000049,4.99972120164681,-0.12480359879672413,0.33947500194997693,0
141,0.005640000000000089,5.000378781950543,-0.12546117835382642,0.3395937756555493,0
142,0.005679999999999907,5.000707572102282,-0.12578996813217858,0.3393842388321697,0
143,0.005719999999999947,5.000378781950543,-0.12940665568529136,0.3424630806588783,0
144,0.005759999999999987,4.99972120164681,-0.13466729209748313,0.34718635384158897,0
145,0.005800000000000027,4.99972120164681,-0.12940665568529136,0.3413888383144893,0
146,0.005840000000000067,5.000707572102282,-0.13269455344690018,0.34414034268945703,0
147,0.005880000000000107,5.000049991798719,-0.1333521329976266,0.3442620161915348,0
148,0.005919999999999925,5.000378781950543,-0.13598245119521052,0.3463569172842082,0
149,0.005959999999999965,5.000049991798719,-0.13400971254782096,0.34384925207740136,0
150,0.006000000000000005,5.000378781950543,-0.1369688205171084,0.3462739256305182,0
151,0.006040000000000045,5.000378781950543,-0.13269455344690018,0.3414657178811271,0
152,0.006080000000000085,4.99972120164681,-0.137297610290808,0.3455353293725575,0
153,0.006119999999999903,5.000378781950543,-0.1330233432223299,0.34072811386399016,0
154,0.006159999999999943,4.999063621342738,-0.13532487164661305,0.34249719234220904,0
155,0.006199999999999983,5.000378781950543,-0.1330233432223299,0.339663714043466,0
156,0.006240000000000023,5.000378781950543,-0.12480359879672413,0.3309125213885161,0
157,0.006280000000000063,4.99972120164681,-0.1290778659083996,0.33465584348539495,0
158,0.006320000000000103,5.000378781950543,-0.1277627067995044,0.3328102441415917,0
159,0.006359999999999921,4.99972120164681,-0.12710512724426004,0.3316227306925671,0
160,0.006399999999999961,4.99972120164681,-0.12283086012223408,0.32681903757501496,0
161,0.006440000000000001,4.999392411494816,-0.12480359879672413,0.328262859705236,0
162,0.006480000000000041,5.000378781950543,-0.11888538275893985,0.32181623812330873,0
163,0.006520000000000081,4.999392411494816,-0.11855659297780442,0.32095955534288045,0
164,0.006559999999999899,4.999392411494816,-0.11855659297780442,0.3204321764290069,0
165,0.006599999999999939,5.000707572102282,-0.12447480901797399,0.3258235291771256,0
166,0.006639999999999979,5.000707572102282,-0.12447480901797399,0.3252971830391244,0
167,0.006680000000000019,4.997419670581074,-0.12381722946007585,0.32411377602531516,0
168,0.006720000000000059,5.002351522859708,-0.12644754768848476,0.32621878700374657,0
169,0.006760000000000099,4.999392411494816,-0.126118757910398,0.32536521170125215,0
170,0.006799999999999917,4.99972120164681,-0.1330233432223299,0.3317455347297652,0
171,0.006839999999999957,5.003337893313145,-0.13466729209748313,0.33286574607367975,0
172,0.006879999999999997,4.997419670581074,-0.1392703489302085,0.3369455916342993,0
173,0.006920000000000037,4.999392411494816,-0.14222945688031302,0.3393820160741355,0
174,0.006960000000000077,4.998734831190575,-0.14650372390027555,0.3431341288441135,0
175,0.006999999999999895,5.002022732708393,-0.1468325136701073,0.3429412951184221,0
176,0.007039999999999935,4.99972120164681,-0.15472346810596177,0.3503111583031131,0
177,0.007079999999999975,5.000378781950543,-0.1603128941180325,0.3553800267939896,0
178,0.007120000000000015,5.000378781950543,-0.16623110985325845,0.36077822021930206,0
179,0.007160000000000055,4.999392411494816,-0.17149174602579192,0.36551937077020585,0
180,0.007200000000000095,5.000378781950543,-0.17971148997635578,0.3732201672601085,0
181,0.007239999999999913,5.000378781950543,-0.18299938753297212,0.37598965698538844,0
182,0.007279999999999953,4.99972120164681,-0.19286308012169417,0.38533548283611757,0
183,0.007319999999999993,5.000707572102282,-0.19713734687227985,0.3890924254017239,0
184,0.007360000000000033,5.000378781950543,-0.20502830081307927,0.3964665991658696,0
185,0.007400000000000073,5.000049991798719,-0.21028893673008708,0.4012110003654937,0
186,0.007440000000000113,4.99972120164681,-0.21291925467551198,0.40332563049937087,0
187,0.007479999999999931,5.001036362253937,-0.22146778793782235,0.41135902429814797,0
188,0.007519999999999971,5.000049991798719,-0.2240981058461004,0.41347475252868826,0
189,0.007560000000000011,5.000378781950543,-0.22804358269209174,0.4169061909161116,0
190,0.007600000000000051,5.000049991798719,-0.23363300819012922,0.4219821306037088,0
191,0.007640000000000091,4.99972120164681,-0.23757848498839296,0.4254146756641919,0
192,0.007679999999999909,5.000049991798719,-0.2451406487963938,0.4324644632271677,0
193,0.007719999999999949,5.000049991798719,-0.25040128444594667,0.43721327954010286,0
194,0.007759999999999989,4.99972120164681,-0.2619089248061193,0.4482096588832629,0
195,0.007800000000000029,5.000378781950543,-0.2655256117414555,0.45131564452792566,0
196,0.00784000000000007,4.99972120164681,-0.2763756724467517,0.4616555650711485,0
197,0.00788000000000011,4.999392411494816,-0.2832802564531134,0.4680505714418146,0
198,0.007919999999999927,5.000049991798719,-0.29248636836596326,0.4767476696386319,0
199,0.007959999999999967,5.000378781950543,-0.2951166860352364,0.4788695389003187,0
200,0.008000000000000007,5.000049991798719,-0.3016924801692385,0.48493745131945376,0
201,0.008040000000000047,5.000378781950543,-0.304651587511256,0.48738924501907765,0
202,0.008080000000000087,5.000378781950543,-0.30629553602968995,0.4885264493428175,0
203,0.008119999999999905,4.999392411494816,-0.3020212698744679,0.48374600981129073,0
204,0.008159999999999945,4.999063621342738,-0.29840458310923823,0.47962372185429036,0
205,0.008199999999999985,5.000049991798719,-0.2914999992376794,0.4722141103370864,0
206,0.008240000000000025,4.99972120164681,-0.2849242050170022,0.4651338633739183,0
207,0.008280000000000065,5.000049991798719,-0.27571809301437356,0.4554238748844104,0
208,0.008320000000000105,5.000378781950543,-0.2688135089408429,0.44801599192748986,0
209,0.008359999999999923,5.000378781950543,-0.26388166313656264,0.4425814261865992,0
210,0.008399999999999963,4.99972120164681,-0.25401797143452803,0.43221559483342736,0
211,0.008440000000000003,5.000707572102282,-0.24974370499168314,0.4274397703590077,0
212,0.008480000000000043,5.000707572102282,-0.24152396176686608,0.4187190520516551,0
213,0.008520000000000083,5.000049991798719,-0.23889364391675078,0.41558834339289896,0
214,0.008559999999999901,4.99972120164681,-0.2359345363248534,0.4121294305864813,0
215,0.008599999999999941,5.000378781950543,-0.23494816712508126,0.4106438430818976,0
216,0.008639999999999981,4.99972120164681,-0.23264663898747384,0.4078436848601292,0
217,0.008680000000000021,5.000707572102282,-0.24053759257410445,0.41523659788953615,0
218,0.008720000000000061,5.000049991798719,-0.2411951720360831,0.4153967276228525,0
219,0.008760000000000101,5.000378781950543,-0.24415427960817487,0.4178589775917967,0
220,0.008799999999999919,4.99972120164681,-0.24875733580925313,0.4219657696075167,0
221,0.008839999999999959,5.000378781950543,-0.2480997563536102,0.4208125206718929,0
222,0.008879999999999999,4.99972120164681,-0.2513876536263073,0.4236053444528809,0
223,0.008920000000000039,5.000378781950543,-0.25500434061033206,0.426727555211662,0
224,0.008960000000000079,5.000378781950543,-0.25500434061033206,0.42623367752636876,0
225,0.008999999999999897,5.001036362253937,-0.2543467611599342,0.425082820199397,0
226,0.009039999999999937,5.000049991798719,-0.25500434061033206,0.4252477228459857,0
227,0.009079999999999977,5.000707572102282,-0.25599070978489247,0.42574201754881547,0
228,0.009120000000000017,5.000707572102282,-0.256977078958209,0.4262369158370535,0
229,0.009160000000000057,5.000049991798719,-0.25599070978489247,0.42475968061513764,0
230,0.009200000000000097,5.000049991798719,-0.2556619200601772,0.423940630923375,0
231,0.009239999999999915,5.000049991798719,-0.2556619200601772,0.42345097827819034,0
232,0.009279999999999955,5.000049991798719,-0.2494149152643444,0.4167149293945774,0
233,0.009319999999999995,5.000707572102282,-0.25303160225748084,0.41984318208810323,0
234,0.009360000000000035,5.000378781950543,-0.2513876536263073,0.4177114101714691,0
235,0.009400000000000075,5.000707572102282,-0.2494149152643444,0.41525146075938535,0
236,0.009439999999999893,5.000707572102282,-0.24579822825451764,0.4111481761511694,0
237,0.009479999999999933,5.000378781950543,-0.24251033095838925,0.407374295919971,0
238,0.009519999999999973,5.000378781950543,-0.23889364391675078,0.4032722418133574,0
239,0.009560000000000013,5.000049991798719,-0.23955122338010482,0.40344507128378737,0
240,0.009600000000000053,4.99972120164681,-0.23396179792407312,0.3973715141040127,0
241,0.009640000000000093,5.000378781950543,-0.22902995190050734,0.39195615581818205,0
242,0.009679999999999911,5.000378781950543,-0.22870116216450587,0.3911444744688505,0
243,0.009719999999999951,5.000049991798719,-0.2257420545343266,0.38770309705688566,0
244,0.009759999999999991,5.000378781950543,-0.2201526289804009,0.38163202473047475,0
245,0.009800000000000031,4.999063621342738,-0.21686473157728053,0.3778631047370645,0
246,0.009840000000000071,5.000707572102282,-0.21160409570389016,0.3721220716236072,0
247,0.009880000000000111,5.000049991798719,-0.21160409570389016,0.37164230089691763,0
248,0.009919999999999929,5.000378781950543,-0.2053570905589132,0.3649161526969035,0
249,0.009959999999999969,5.000049991798719,-0.20305556233521876,0.3621361102432133,0
250,0.010000000000000009,5.000378781950543,-0.20141161359992904,0.3600142772514656,0
251,0.010040000000000049,5.000378781950543,-0.19516460837485777,0.3532900188870712,0
252,0.010080000000000089,5.000378781950543,-0.19516460837485777,0.3528133980035739,0
253,0.010119999999999907,5.001036362253937,-0.1922055006195703,0.34937830275439447,0
254,0.010159999999999947,5.000049991798719,-0.18924639285330647,0.3459438420127061,0
255,0.010199999999999987,5.000049991798719,-0.1872736543363711,0.3434963861627524,0
256,0.010240000000000027,4.99972120164681,-0.18497212606045715,0.34072077731523476,0
257,0.010280000000000067,5.000378781950543,-0.18365696704267448,0.338932175601335,0
258,0.010320000000000107,5.000378781950543,-0.17971148997635578,0.334513894823515,0
259,0.010359999999999925,5.000049991798719,-0.17872512070673813,0.3330553619311921,0
260,0.010399999999999965,5.000707572102282,-0.17510843337441945,0.32896715216418904,0
261,0.010440000000000005,5.000049991798719,-0.1734644845816094,0.32685232321897895,0
262,0.010480000000000045,5.000049991798719,-0.1695190074651277,0.32243660932167734,0
263,0.010520000000000085,5.000707572102282,-0.16820384842199382,0.3206518579536255,0
264,0.010559999999999903,5.000049991798719,-0.16491595080474653,0.31689501354670524,0
265,0.010599999999999943,5.000049991798719,-0.16228563270127483,0.31379639526316383,0
266,0.010639999999999983,5.000049991798719,-0.16097047364631673,0.31201358370710663,0
267,0.010680000000000023,4.99972120164681,-0.15702499646856433,0.3076011027715965,0
268,0.010720000000000063,5.000707572102282,-0.1557098374050238,0.3058195897530085,0
269,0.010760000000000103,5.000378781950543,-0.14979162159258003,0.29943567084258904,0
270,0.01079999999999992,5.000049991798719,-0.14979162159258003,0.2989706196510345,0
271,0.01083999999999996,5.000378781950543,-0.14650372390027555,0.29521832371792767,0
272,0.01088,5.000378781950543,-0.145188564819613,0.2934394203865213,0
273,0.01092000000000004,5.000378781950543,-0.14288703642331374,0.29067480276381313,0
274,0.01096000000000008,4.99972120164681,-0.14387340573681423,0.29119873890448067,0
275,0.010999999999999899,5.000378781950543,-0.14190066710861254,0.28876422418122283,0
276,0.011039999999999939,5.000049991798719,-0.14222945688031302,0.2886318959547989,0
277,0.011079999999999979,4.99972120164681,-0.14321582619461398,0.2891578063820111,0
278,0.011120000000000019,5.000707572102282,-0.14288703642331374,0.28836921784370634,0
279,0.011160000000000059,5.000049991798719,-0.14222945688031302,0.2872525006577739,0
280,0.011200000000000099,5.000049991798719,-0.14025671824810987,0.2848212865056353,0
281,0.011239999999999917,5.000378781950543,-0.1379551898378077,0.2820619456922479,0
282,0.011279999999999957,4.99972120164681,-0.13959913870297558,0.2832487462599605,0
283,0.011319999999999997,5.000049991798719,-0.13894155915730816,0.2821346835061682,0
284,0.011360000000000037,5.000378781950543,-0.137297610290808,0.28003491749949055,0
285,0.011400000000000077,5.000049991798719,-0.1379551898378077,0.2802373469477886,0
286,0.011439999999999895,5.000378781950543,-0.13466729209748313,0.27649496711867416,0
287,0.011479999999999935,5.000049991798719,-0.13565366142097834,0.27702752332662894,0
288,0.011519999999999975,5.000378781950543,-0.13400971254782096,0.27493043126941524,0
289,0.011560000000000015,5.000049991798719,-0.13203697389564184,0.27250522031779156,0
290,0.011600000000000055,4.99972120164681,-0.13433850232271854,0.27435494827805157,0
291,0.011640000000000095,5.000378781950543,-0.12940665568529136,0.26897197394933625,0
292,0.011679999999999913,5.000707572102282,-0.1336809227727903,0.27279578705885726,0
293,0.011719999999999953,5.000049991798719,-0.13269455344690018,0.27135963840095745,0
294,0.011759999999999993,5.000049991798719,-0.1323657636713375,0.27058174486688397,0
295,0.011800000000000033,5.000049991798719,-0.1333521329976266,0.27111968693055993,0
296,0.011840000000000073,5.000049991798719,-0.13203697389564184,0.26935677797912283,0
297,0.011880000000000113,5.000378781950543,-0.13532487164661305,0.27219760420592687,0
298,0.01191999999999993,5.000049991798719,-0.13433850232271854,0.2707648425901317,0
299,0.01195999999999997,4.99972120164681,-0.1333521329976266,0.26933276110724036,0
300,0.01200000000000001,5.000049991798719,-0.13565366142097834,0.2711892584035777,0
301,0.01204000000000005,4.99972120164681,-0.13532487164661305,0.27041611942451227,0
302,0.01208000000000009,4.99972120164681,-0.1336809227727903,0.2683285041546752,0
303,0.012119999999999909,5.000707572102282,-0.1333521329976266,0.2675567316733933,0
304,0.012159999999999949,5.000049991798719,-0.1392703489302085,0.27303264946579814,0
305,0.012199999999999989,5.000378781950543,-0.13828397961110772,0.27160466744333817,0
306,0.012240000000000029,5.000378781950543,-0.13532487164661305,0.2682046330780069,0
307,0.012280000000000069,5.000378781950543,-0.13433850232271854,0.2667780245163282,0
308,0.012320000000000109,5.000049991798719,-0.1336809227727903,0.26568089374702,0
309,0.012359999999999927,5.000378781950543,-0.13203697389564184,0.2635980825190662,0
310,0.012399999999999967,5.000049991798719,-0.12546117835382642,0.2565841143400063,0
311,0.012440000000000007,5.001036362253937,-0.11987175210155175,0.2505572060038467,0
312,0.012480000000000047,5.000707572102282,-0.12184449078319924,0.25209315398957777,0
313,0.012520000000000087,5.000378781950543,-0.1136247462448944,0.24343731097274107,0
314,0.012559999999999905,5.000049991798719,-0.10836410969701198,0.23774126898793196,0
315,0.012599999999999945,5.000378781950543,-0.10343226290269213,0.23237471061731313,0
316,0.012639999999999985,4.99972120164681,-0.09619888755075014,0.22470731836352115,0
317,0.012680000000000025,5.000378781950543,-0.09093825089119083,0.21901336028517843,0
318,0.012720000000000065,5.000049991798719,-0.08567761419804089,0.21332009845972222,0
319,0.012760000000000105,4.999392411494816,-0.08074576726775658,0.2079563234818096,0
320,0.012799999999999923,4.99972120164681,-0.07351239171679176,0.20029171776088267,0
321,0.012839999999999963,5.000049991798719,-0.0715396529191989,0.1978884474587671,0
322,0.012880000000000003,5.000378781950543,-0.06430627728788789,0.19022523977092837,0
323,0.012920000000000043,4.999063621342738,-0.06003200983978245,0.18552184049162546,0
324,0.012960000000000083,5.000049991798719,-0.053456213722917104,0.17851761354100554,0
325,0.0129999999999999,5.000049991798719,-0.05049710545340523,0.17513077620206968,0
326,0.01303999999999994,5.000378781950543,-0.04786678698281073,0.1720734311880417,0
327,0.01307999999999998,5.000049991798719,-0.04359251945043667,0.16737284039465422,0
328,0.01312000000000002,5.000707572102282,-0.04096220095812057,0.16431690267494092,0
329,0.01316000000000006,5.000707572102282,-0.04161978058197445,0.16454956785097402,0
330,0.0132000000000001,5.000378781950543,-0.03767430283110791,0.16017988117258625,0
331,0.013239999999999919,5.000378781950543,-0.03471519450577058,0.15679727017551037,0
332,0.013279999999999959,5.001036362253937,-0.033071245431629134,0.15473052541565407,0
333,0.013319999999999999,5.000707572102282,-0.03635914357669136,0.15759633558602293,0
334,0.013360000000000039,4.99972120164681,-0.03340003524671499,0.15421584771212682,0
335,0.013400000000000079,5.000378781950543,-0.033071245431629134,0.15346638749839847,0
336,0.013439999999999896,5.000049991798719,-0.03044092690630805,0.15041610842896613,0
337,0.013479999999999936,5.000378781950543,-0.033071245431629134,0.15262717696870975,0
338,0.013519999999999976,5.000378781950543,-0.035372774134525484,0.15451016694331288,0
339,0.013560000000000016,5.000378781950543,-0.033071245431629134,0.15179081146290446,0
340,0.013600000000000056,5.000049991798719,-0.03142729635426868,0.14972974824705554,0
341,0.013640000000000096,5.000378781950543,-0.035372774134525484,0.15325882521083423,0
342,0.013679999999999914,5.000049991798719,-0.0340576148765004,0.15152797913607136,0
343,0.013719999999999954,5.000378781950543,-0.035372774134525484,0.15242816624956962,0
344,0.013759999999999994,5.001036362253937,-0.03800309264438971,0.15464422795432858,0
345,0.013800000000000034,5.000049991798719,-0.039975831521371616,0.15620342602757553,0
346,0.013840000000000074,5.000049991798719,-0.04030462133375036,0.15611939169427563,0
347,0.013879999999999892,4.99972120164681,-0.04392130926139491,0.15932397278572008,0
348,0.013919999999999932,5.000049991798719,-0.046551627744407784,0.1615429023881687,0
349,0.013959999999999972,4.99972120164681,-0.05115468506975916,0.16573528942948318,0
350,0.014000000000000012,5.000049991798719,-0.0498395258365333,0.1640101791443725,0
351,0.014040000000000052,4.99972120164681,-0.052469844300912574,0.16623126641937563,0
352,0.014080000000000092,5.000378781950543,-0.05510016275699865,0.16845307417368177,0
353,0.01411999999999991,5.000378781950543,-0.05838806081543309,0.17133318263775027,0
354,0.01415999999999995,4.999063621342738,-0.06167595886088427,0.17421401281079774,0
355,0.01419999999999999,5.000049991798719,-0.06397748748496758,0.17610919589371765,0
356,0.01424000000000003,5.000378781950543,-0.0715396529191989,0.1832657387220344,0
357,0.01428000000000007,4.99972120164681,-0.07384118151593398,0.18516236824684118,0
358,0.01432000000000011,5.000378781950543,-0.07943060808137585,0.19034761986780746,0
359,0.014359999999999928,4.99972120164681,-0.08567761419804089,0.19619117575564482,0
360,0.014399999999999968,5.000049991798719,-0.08863672234206758,0.19874755896941515,0
361,0.014440000000000008,5.000378781950543,-0.09422614880735543,0.2039349863806687,0
362,0.014480000000000048,5.000378781950543,-0.09619888755075014,0.20550645251862976,0
363,0.014520000000000088,5.000049991798719,-0.10408984247698179,0.212996861855134,0
364,0.014559999999999906,5.000378781950543,-0.10573379141039972,0.21424099277636327,0
365,0.014599999999999946,5.000049991798719,-0.11132321775935598,0.2194313292472282,0
366,0.014639999999999986,5.000378781950543,-0.1100080586218566,0.21771780891701986,0
367,0.014680000000000026,5.000707572102282,-0.11099442797517921,0.21830654630902768,0
368,0.014720000000000066,5.000378781950543,-0.10967926883715166,0.21659448498181783,0
369,0.014760000000000106,5.000378781950543,-0.11099442797517921,0.2175134722382605,0
370,0.014799999999999924,5.000049991798719,-0.1103368484064295,0.21646045162571553,0
371,0.014839999999999964,4.99972120164681,-0.11428232581100171,0.22001121934920126,0
372,0.014880000000000004,5.000049991798719,-0.11296716667825839,0.2183020824177263,0
373,0.014920000000000044,5.000378781950543,-0.11592627472395621,0.22086794506142066,0
374,0.014960000000000084,5.001365152405508,-0.11493990537658023,0.2194890632178701,0
375,0.014999999999999902,4.997748460733576,-0.11592627472395621,0.22008365347872855,0
376,0.015039999999999942,5.000049991798719,-0.11559748494162976,0.21936381851809778,0
377,0.015079999999999982,5.000707572102282,-0.10935047905231472,0.21272650185197622,0
378,0.015120000000000022,5.000707572102282,-0.1103368484064295,0.21332329531879607,0
379,0.015160000000000062,4.997419670581074,-0.1116520075434007,0.2142496139407271,0
380,0.015200000000000102,5.003009103162085,-0.1116520075434007,0.21386150927541503,0
381,0.01523999999999992,4.99972120164681,-0.11230958711109378,0.21413172049972817,0
382,0.01527999999999996,4.999063621342738,-0.11099442797517921,0.2124299298093016,0
383,0.01532,5.001365152405508,-0.10836410969701198,0.20941371722715846,0
384,0.01536000000000004,5.000378781950543,-0.10540500162397977,0.2060694525570877,0
385,0.01540000000000008,4.99972120164681,-0.10343226290269213,0.20371229539683472,0
386,0.015439999999999898,5.000378781950543,-0.1027746833278755,0.20267103598699737,0
387,0.015479999999999938,4.999392411494816,-0.0998155752346823,0.1993289871033363,0
388,0.015519999999999978,5.000378781950543,-0.10178831396466272,0.20091952452274808,0
389,0.015560000000000018,5.000049991798719,-0.10211710375253198,0.20086685291003326,0
390,0.015600000000000058,5.000378781950543,-0.09882920586791545,0.19719823395964292,0
391,0.0156400000000001,5.000378781950543,-0.0971852569206733,0.19517430470100433,0
392,0.015679999999999916,5.000707572102282,-0.09258219985091413,0.19019200848853607,0
393,0.015719999999999956,5.000049991798719,-0.09225341005923197,0.18948472113188553,0
394,0.015759999999999996,5.000378781950543,-0.08797914275542355,0.1848326982446476,0
395,0.015800000000000036,5.000049991798719,-0.08469124481434036,0.18116778710021758,0
396,0.015840000000000076,5.000049991798719,-0.08567761419804089,0.1817778860539459,0
397,0.015879999999999894,5.000378781950543,-0.07811544889290346,0.17384019348025176,0
398,0.015919999999999934,5.000049991798719,-0.07877302848740105,0.17412298935039894,0
399,0.015959999999999974,4.99972120164681,-0.07680028970234042,0.17177621076273686,0
400,0.016000000000000014,4.99972120164681,-0.06956691411691203,0.16416953966875214,0
401,0.016040000000000054,5.000049991798719,-0.06923812431607472,0.163468199020455,0
402,0.016080000000000094,5.000049991798719,-0.06496385689333826,0.1588221257731639,0
403,0.016119999999999912,4.99972120164681,-0.05838806081543309,0.15187526925017647,0
404,0.016159999999999952,5.000378781950543,-0.05444258314375501,0.1475594768642169,0
405,0.016199999999999992,4.99972120164681,-0.052469844300912574,0.1452171693839851,0
406,0.016240000000000032,5.000378781950543,-0.04786678698281073,0.14024528984624296,0
407,0.016280000000000072,5.000049991798719,-0.04523646850393555,0.13724689590110106,0
408,0.016320000000000112,4.99972120164681,-0.044907678693494255,0.13655077770816104,0
409,0.01635999999999993,5.000707572102282,-0.04161978058197445,0.1328962986230771,0
410,0.01639999999999997,4.99972120164681,-0.04161978058197445,0.13253046537838908,0
411,0.01644000000000001,5.000049991798719,-0.03800309264438971,0.12854869223971033,0
412,0.01648000000000005,4.99972120164681,-0.03734551301769716,0.12752677576501442,0
413,0.01652000000000009,5.000707572102282,-0.03372882506167206,0.12354649961835451,0
414,0.016559999999999908,5.001036362253937,-0.035043984320212454,0.12449881964269027,0
415,0.016599999999999948,5.000378781950543,-0.03438640469119987,0.12347915002975118,0
416,0.016639999999999988,5.000049991798719,-0.0340576148765004,0.12278901977003981,0
417,0.016680000000000028,5.000049991798719,-0.03471519450577058,0.12308600877664044,0
418,0.016720000000000068,5.000378781950543,-0.035701563948709644,0.12371253769747337,0
419,0.016760000000000108,5.000378781950543,-0.03734551301769716,0.1249973966179353,0
420,0.016799999999999926,5.000049991798719,-0.03603035376276496,0.12332389785587322,0
421,0.016839999999999966,5.000049991798719,-0.03866067227056637,0.12559662776055736,0
422,0.016880000000000006,4.99972120164681,-0.03866067227056637,0.1252397903188736,0
423,0.016920000000000046,5.000049991798719,-0.04096220095812057,0.127185232978406,0
424,0.016960000000000086,5.000049991798719,-0.04129099077011207,0.1271586884230767,0
425,0.016999999999999904,4.99972120164681,-0.044907678693494255,0.13042079388169214,0
426,0.017039999999999944,5.000049991798719,-0.04425009907222392,0.12940938393487883,0
427,0.017079999999999984,5.000049991798719,-0.047537997173404054,0.13234420408122888,0
428,0.017120000000000024,5.000049991798719,-0.05181226468559495,0.13626614623561456,0
429,0.017160000000000064,5.000378781950543,-0.05444258314375501,0.13854489215413246,0
430,0.017200000000000104,4.999063621342738,-0.060689589448612954,0.14444107895347924,0
431,0.017239999999999922,5.000049991798719,-0.06463506709067811,0.1480364903349649,0
432,0.017279999999999962,5.000049991798719,-0.06627901610267752,0.14933112653695352,0
433,0.017320000000000002,4.99972120164681,-0.0715396529191989,0.15424320419451043,0
434,0.017360000000000042,4.99972120164681,-0.07219723251891826,0.1545529784816333,0
435,0.017400000000000082,5.000049991798719,-0.07581392030804664,0.15782261499470218,0
436,0.0174399999999999,4.99972120164681,-0.08008818767482774,0.1617505853069806,0
437,0.01747999999999994,5.000378781950543,-0.08271850604340404,0.16403536102248584,0
438,0.01751999999999998,4.99972120164681,-0.08797914275542355,0.16895120965759874,0
439,0.01756000000000002,5.000049991798719,-0.09126704068339796,0.17189507425442635,0
440,0.01760000000000006,4.99972120164681,-0.09554130797014417,0.1758260631202465,0
441,0.0176400000000001,5.000378781950543,-0.0971852569206733,0.17712748871940126,0
442,0.017679999999999918,4.99972120164681,-0.09915799565696932,0.178758459328079,0
443,0.017719999999999958,5.000049991798719,-0.10343226290269213,0.18269171381902127,0
444,0.017759999999999998,5.000707572102282,-0.10803531991164712,0.18695451358999632,0
445,0.017800000000000038,4.999392411494816,-0.11099442797517921,0.18957412007119756,0
446,0.017840000000000078,5.000049991798719,-0.11461111559385707,0.192852061896932,0
447,0.017879999999999896,5.000049991798719,-0.12315964990164728,0.20106260632979897,0
448,0.017919999999999936,5.000049991798719,-0.12710512724426004,0.20467084983904058,0
449,0.017959999999999976,5.000049991798719,-0.13170818411981328,0.20893742904120952,0
450,0.018000000000000016,4.999392411494816,-0.13072181479152978,0.20761533831287057,0
451,0.018040000000000056,5.000378781950543,-0.13203697389564184,0.20859553239850948,0
452,0.018080000000000096,5.000378781950543,-0.13631124096930963,0.21253559093845545,0
453,0.018119999999999914,5.000378781950543,-0.1405855080204771,0.21647640603874185,0
454,0.018159999999999954,4.99972120164681,-0.14551735458997894,0.22107555733321765,0
455,0.018199999999999994,4.99972120164681,-0.1501204113610753,0.22534667559308644,0
456,0.018240000000000034,4.99972120164681,-0.15373709880569447,0.22863218137315341,0
457,0.018280000000000074,5.000378781950543,-0.15538104763880373,0.22994570546620163,0
458,0.018320000000000114,5.000378781950543,-0.1599841043536892,0.23421909443827563,0
459,0.018359999999999932,5.000049991798719,-0.16392958151695192,0.2378356609236824,0
460,0.018399999999999972,4.99972120164681,-0.16984779722557486,0.24342572308206348,0
461,0.018440000000000012,5.000378781950543,-0.17149174602579192,0.2447422755172688,0
462,0.018480000000000052,5.000378781950543,-0.1760948026484882,0.24901869301276244,0
463,0.018520000000000092,5.000378781950543,-0.18102664900062287,0.2536246575230506,0
464,0.01855999999999991,5.000378781950543,-0.18464333630621427,0.256916220314672,0
465,0.01859999999999995,5.000378781950543,-0.1882600235954478,0.26020854045531083,0
466,0.01863999999999999,5.000378781950543,-0.19516460837485777,0.26678951548398355,0
467,0.01868000000000003,5.000049991798719,-0.19812371611915885,0.26942577090287523,0
468,0.01872000000000007,5.000049991798719,-0.20108282385246334,0.27206278375856185,0
469,0.01876000000000011,5.000049991798719,-0.2027267725884327,0.2733853950821665,0
470,0.018799999999999928,5.000049991798719,-0.20404193157476108,0.2743799741338488,0
471,0.018839999999999968,5.000378781950543,-0.20798740852068553,0.2780056286303202,0
472,0.018880000000000008,5.000378781950543,-0.20897377775410353,0.2786729329019665,0
473,0.018920000000000048,5.000707572102282,-0.21554957261220803,0.2849304202834885,0
474,0.018960000000000088,5.000707572102282,-0.22048141871996135,0.2895447163923811,0
475,0.018999999999999906,5.000049991798719,-0.22672842374561925,0.2954749288844627,0
476,0.019039999999999946,4.999063621342738,-0.23067390057845844,0.29910437063160866,0
477,0.019079999999999986,5.000049991798719,-0.23724969525595985,0.30536488764893993,0
478,0.019120000000000026,5.000378781950543,-0.24316791041871655,0.3109685825497356,0
479,0.019160000000000066,5.000049991798719,-0.25401797143452803,0.3215048806695334,0
480,0.019200000000000106,5.000049991798719,-0.26256650425015443,0.32974040791788994,0
481,0.019239999999999924,5.000049991798719,-0.2707862472538157,0.33764790264088473,0
482,0.019279999999999964,5.000378781950543,-0.2819650975994935,0.34851526194542737,0
483,0.019320000000000004,5.000049991798719,-0.29182878894724706,0.3580682194395791,0
484,0.019360000000000044,4.99972120164681,-0.3016924801692385,0.3676219339385835,0
485,0.019400000000000084,5.000378781950543,-0.31451527856919353,0.38013551268433343,0
486,0.019439999999999902,5.000049991798719,-0.32273502102076074,0.388046792483736,0
487,0.019479999999999942,4.99972120164681,-0.33128355307687346,0.3962876188180804,0
488,0.019519999999999982,5.000707572102282,-0.33818813659088265,0.40288525346417553,0
489,0.019560000000000022,5.000378781950543,-0.3437775612945547,0.4081684860723535,0
490,0.019600000000000062,5.000049991798719,-0.3519973034312994,0.41608279279970317,0
491,0.019640000000000102,5.000378781950543,-0.35528520026110905,0.4190660108150151,0
492,0.01967999999999992,5.000378781950543,-0.3572579383521592,0.4207348265903886,0
493,0.01971999999999996,5.000049991798719,-0.3595594661185665,0.4227331884389947,0
494,0.01976,5.000049991798719,-0.3562715693072752,0.4191428820019692,0
495,0.01980000000000004,4.99972120164681,-0.36087462483909066,0.4234442840894514,0
496,0.01984000000000008,5.000707572102282,-0.35857309707667584,0.4208418589485878,0
497,0.019879999999999898,5.000378781950543,-0.3628473629155968,0.42481598335458454,0
498,0.019919999999999938,5.000378781950543,-0.36087462483909066,0.42254385966548197,0
499,0.019959999999999978,5.000378781950543,-0.3595594661185665,0.4209300710226621,0
500,0.020000000000000018,5.000378781950543,-0.36087462483909066,0.4219473553763404,0
501,0.020040000000000058,4.99972120164681,-0.3575867280335021,0.4183623396196875,0
502,0.020080000000000098,5.000378781950543,-0.354298831213661,0.41477807912008396,0
503,0.020119999999999916,4.999392411494816,-0.3510109343795813,0.41119457372826,0
504,0.020159999999999956,5.000049991798719,-0.3424624025444375,0.4023511883033095,0
505,0.020199999999999996,5.000049991798719,-0.3385169262804682,0.39811161325859934,0
506,0.020240000000000036,5.000049991798719,-0.3299683943052259,0.38926973714802604,0
507,0.020280000000000076,5.000378781950543,-0.3191183343529189,0.3781270875373639,0
508,0.020319999999999894,4.99972120164681,-0.31287133006832074,0.37158824789818123,0
509,0.020359999999999934,5.000378781950543,-0.29906216252235884,0.3574879991234363,0
510,0.020399999999999974,5.000707572102282,-0.2859105741536623,0.34404608346903187,0
511,0.020440000000000014,4.99972120164681,-0.27867720045569355,0.33652313624095326,0
512,0.020480000000000054,5.000049991798719,-0.2635528734151684,0.3211099892336948,0
513,0.020520000000000094,4.99972120164681,-0.24974370499168314,0.3070127542098935,0
514,0.02055999999999991,5.000049991798719,-0.2342905876578798,0.291272323440501,0
515,0.02059999999999995,5.000378781950543,-0.2208102084593851,0.2775053837647298,0
516,0.02063999999999999,5.000378781950543,-0.20601467005017304,0.2624240376254226,0
517,0.02068000000000003,5.000378781950543,-0.19319186987255288,0.24931618224904767,0
518,0.02072000000000007,5.000049991798719,-0.18135543875635207,0.23719544824488858,0
519,0.02076000000000011,5.000378781950543,-0.16886142794382974,0.22441788662996434,0
520,0.02079999999999993,5.000378781950543,-0.15275072950422225,0.20802438924358232,0
521,0.02083999999999997,5.000049991798719,-0.14222945688031302,0.1972210692939147,0
522,0.02088000000000001,5.000378781950543,-0.13006423523867633,0.18477455170824908,0
523,0.02092000000000005,5.000049991798719,-0.11987175210155175,0.17430152376486996,0
524,0.02096000000000009,5.000378781950543,-0.10902168926734575,0.16317166701356794,0
525,0.020999999999999908,4.99972120164681,-0.0998155752346823,0.15368650969969816,0
526,0.021039999999999948,4.99972120164681,-0.08765035296190492,0.14124299452368944,0
527,0.021079999999999988,5.000049991798719,-0.07351239171679176,0.12682749049076708,0
528,0.021120000000000028,5.000378781950543,-0.06463506709067811,0.11767337292508251,0
529,0.021160000000000068,5.000049991798719,-0.050168315645034,0.10293057811629736,0
530,0.021200000000000108,5.000049991798719,-0.042277360205311795,0.09476432861343864,0
531,0.021239999999999926,5.000049991798719,-0.028139398189897927,0.0803518215538575,0
532,0.021279999999999966,4.999392411494816,-0.01301506646843685,0.06495369352156083,0
533,0.021320000000000006,5.000378781950543,-0.0015074225859438989,0.05317300177133283,0
534,0.021360000000000046,5.000378781950543,0.013945699444547363,0.03744758002138954,0
535,0.021400000000000086,4.99972120164681,0.028083662398618273,0.023038065196753388,0
536,0.021439999999999904,5.000049991798719,0.04353678496405114,0.007314138305674622,0
537,0.021479999999999944,5.000049991798719,0.06030506721035353,-0.009724201029885193,0
538,0.021519999999999984,5.000378781950543,0.0760869802093063,-0.02577542419479356,0
539,0.021560000000000024,5.000378781950543,0.09186889349424851,-0.041825901040024926,0
540,0.021600000000000064,5.000049991798719,0.1033765387772625,-0.05360136359983958,0
541,0.021640000000000104,5.000049991798719,0.1181720829338278,-0.0686639790764294,0
542,0.02167999999999992,5.000049991798719,0.13165246782553117,-0.08241068966262105,0
543,0.02171999999999996,5.000049991798719,0.14677680233788687,-0.09780060457968842,0
544,0.02176,4.999392411494816,0.15565412923633737,-0.1069427669333452,0
545,0.02180000000000004,4.99972120164681,0.16979209447845212,-0.1213448230259343,0
546,0.02184000000000008,4.998734831190575,0.18294369025198784,-0.13475976539448076,0
547,0.0218799999999999,4.999392411494816,0.19576649631542703,-0.14784517415122211,0
548,0.02191999999999994,5.000049991798719,0.204643823696239,-0.1569843606818614,0
549,0.02195999999999998,5.000049991798719,0.2184529997938034,-0.17105465274848208,0
550,0.02200000000000002,5.000049991798719,0.22733032739515835,-0.18019235350528895,0
551,0.02204000000000006,5.000378781950543,0.23489249541956267,-0.18801415224316165,0
552,0.0220800000000001,5.000049991798719,0.2388379744134798,-0.19221851988463146,0
553,0.022119999999999918,5.001036362253937,0.24705772237166135,-0.2006964148049567,0
554,0.022159999999999958,4.99972120164681,0.252975940946795,-0.20687203904175988,0
555,0.022199999999999998,5.000378781950543,0.257907789788274,-0.21206055263378853,0
556,0.022240000000000038,5.000049991798719,0.26481237821033843,-0.21922106528904772,0
557,0.022280000000000078,5.000707572102282,0.2713881767551542,-0.2260520479478717,0
558,0.022319999999999895,5.000049991798719,0.2766488156243746,-0.2315671312144767,0
559,0.022359999999999935,4.999392411494816,0.28388219411786964,-0.23905421479568167,0
560,0.022399999999999975,5.000378781950543,0.29111557266717564,-0.24654055953434895,0
561,0.022440000000000015,4.999392411494816,0.29736258145910344,-0.25303979603298465,0
562,0.022480000000000055,4.99972120164681,0.30426717017205257,-0.2601958743900432,0
563,0.022520000000000095,5.000378781950543,0.3082126494592638,-0.2643921056831704,0
564,0.022559999999999913,4.99972120164681,0.3170899779156205,-0.27351944893599567,0
565,0.022599999999999953,5.000049991798719,0.31972029747420344,-0.27639904651467784,0
566,0.022639999999999993,5.000049991798719,0.3223506170400691,-0.2792779077616744,0
567,0.022680000000000033,4.99972120164681,0.32695367629783645,-0.2841287728033194,0
568,0.022720000000000073,5.000049991798719,0.32267940698631403,-0.2801015738244429,0
569,0.022760000000000113,5.000707572102282,0.32432335671924334,-0.28199185888910416,0
570,0.02279999999999993,5.000049991798719,0.3223506170400691,-0.28026471999535363,0
571,0.02283999999999997,4.999392411494816,0.31741876786004486,-0.27557773751332915,0
572,0.02288000000000001,5.000378781950543,0.31445965836432727,-0.2728627610913409,0
573,0.02292000000000005,4.99972120164681,0.3088702293420662,-0.2675167319859536,0
574,0.02296000000000009,5.000049991798719,0.30426717017205257,-0.2631563400476247,0
575,0.02299999999999991,5.001036362253937,0.29933532108621697,-0.2584664259841947,0
576,0.02303999999999995,5.000707572102282,0.2921019424736697,-0.25147425066491624,0
577,0.02307999999999999,5.000707572102282,0.28848525318825263,-0.24809803342799736,0
578,0.02312000000000003,5.000378781950543,0.27105938682681197,-0.23091190835886471,0
579,0.02316000000000007,5.000707572102282,0.2677714875497642,-0.22786302011072035,0
580,0.02320000000000011,4.99972120164681,0.25823657971197106,-0.21856639353540785,0
581,0.023239999999999927,4.997748460733576,0.24607135261281843,-0.20663871843348275,0
582,0.023279999999999967,5.002351522859708,0.23752281474696402,-0.19832700380495139,0
583,0.023320000000000007,4.998077250885994,0.22700153748246513,-0.18804182152738996,0
584,0.023360000000000047,5.000378781950543,0.21187720162606338,-0.1731528529212198,0
585,0.023400000000000087,5.002022732708393,0.20628777322070627,-0.16779806454722068,0
586,0.023439999999999905,4.9967620902758165,0.1898482781097507,-0.151592482770725,0
587,0.023479999999999945,5.001693942556992,0.1822861104587591,-0.1442635022834054,0
588,0.023519999999999985,4.998077250885994,0.17012088437045125,-0.1323307377182168,0
589,0.023560000000000025,5.001036362253937,0.16025718766279962,-0.12269877742748236,0
590,0.023600000000000065,4.99972120164681,0.15105107083354244,-0.11372367244739712,0
591,0.023640000000000105,5.000049991798719,0.1418449540991078,-0.10474784353694228,0
592,0.023679999999999923,5.000378781950543,0.13526915648987867,-0.0984016102731402,0
593,0.023719999999999963,5.000378781950543,0.12441909054105722,-0.08778038574190888,0
594,0.023760000000000003,4.999392411494816,0.11652813357084088,-0.08011754781622807,0
595,0.023800000000000043,5.001036362253937,0.10929475641007817,-0.07311156788578549,0
596,0.023840000000000083,4.99972120164681,0.10140379957517373,-0.06544728702987176,0
597,0.0238799999999999,4.99972120164681,0.09449921240276843,-0.05876865515205107,0
598,0.02391999999999994,4.999392411494816,0.08529309625753255,-0.049787774187944445,0
599,0.02395999999999998,4.999392411494816,0.07970366864523482,-0.044422862218289116,0
600,0.02400000000000002,4.998734831190575,0.07181271207711976,-0.03675570233330591,0
601,0.02404000000000006,5.000378781950543,0.06688086425839593,-0.03204693282117793,0
602,0.0240800000000001,5.000378781950543,0.05570200930641887,-0.02109043838622318,0
603,0.02411999999999992,5.000378781950543,0.050770161579389975,-0.01638023397758312,0
604,0.02415999999999996,5.000049991798719,0.048139842803156765,-0.013970841916013499,0
605,0.0242,5.000049991798719,0.04287920527475757,-0.008930415097419098,0
606,0.02424000000000004,5.000378781950543,0.0353170388840013,-0.0015877440144236032,0
607,0.02428000000000008,4.99972120164681,0.030713981113518377,0.0027965332435896384,0
608,0.024319999999999897,5.000707572102282,0.025453343691792682,0.007839104337455424,0
609,0.024359999999999937,5.000378781950543,0.01953512663099438,0.013539968640403854,0
610,0.024399999999999977,5.000378781950543,0.013945699444547363,0.01891275602050327,0
611,0.024440000000000017,5.000049991798719,0.009013851957515154,0.02362867603028436,0
612,0.024480000000000057,5.000378781950543,0.007041112970698912,0.02538619924265234,0
613,0.024520000000000097,5.000049991798719,0.0027668451816259126,0.029445962329908787,0
614,0.024559999999999915,5.000049991798719,0.0024380553525874815,0.029560957895723952,0
615,0.024599999999999955,5.000049991798719,-0.0008498429307955274,0.03263577171658151,0
616,0.024639999999999995,5.000707572102282,0.0014516858662357995,0.030121867615980333,0
617,0.024680000000000035,5.000049991798719,-0.0018362124133269458,0.0331980991053501,0
618,0.024720000000000075,5.000378781950543,0.004082004499051814,0.02706892326675034,0
619,0.024759999999999893,5.000378781950543,0.0007941062093044515,0.030146569841027954,0
620,0.024799999999999933,5.000378781950543,0.003753214669504526,0.02697791621908331,0
621,0.024839999999999973,4.999392411494816,0.00506837398845672,0.02545391763129068,0
622,0.024880000000000013,5.000049991798719,0.0007941062093044515,0.029520051369901032,0
623,0.024920000000000053,5.000049991798719,0.004739584158527918,0.025367143940054446,0
624,0.024960000000000093,4.99972120164681,0.004739584158527918,0.02516041834720663,0
625,0.02499999999999991,4.999392411494816,0.0027668451816259126,0.026927134943139447,0
626,0.02503999999999995,4.99972120164681,0.006054743479005864,0.02343391679702954,0
627,0.02507999999999999,4.99972120164681,0.007369902801517392,0.02191413947465569,0
628,0.02512000000000003,5.000378781950543,0.005725953648695714,0.023354171789389352,0
629,0.02516000000000007,5.000378781950543,0.008027482463535476,0.020849426607431568,0
630,0.02520000000000011,4.999392411494816,0.006054743479005864,0.022619649001308473,0
631,0.02523999999999993,5.000049991798719,0.009671431620803153,0.018801143347129318,0
632,0.02527999999999997,5.000378781950543,0.011315380781244458,0.016956075050703373,0
633,0.02532000000000001,5.000378781950543,0.011972960446309217,0.016098073920509007,0
634,0.02536000000000005,5.000378781950543,0.012301750279031881,0.015569559584311624,0
635,0.02540000000000009,5.000378781950543,0.014603279111640999,0.01306900249703534,0
636,0.025439999999999907,5.000049991798719,0.018548757124844717,0.008925191761488177,0
637,0.025479999999999947,5.000378781950543,0.019863916466630674,0.007412394509572859,0
638,0.025519999999999987,5.000049991798719,0.024466974178816228,0.002612392975747224,0
639,0.025560000000000027,5.000378781950543,0.0313715607935042,-0.004488444099420771,0
640,0.025600000000000067,5.000049991798719,0.037289777936047624,-0.010602219072207111,0
641,0.025640000000000107,4.998734831190575,0.043865574808886185,-0.01737288187955742,0
642,0.025679999999999925,5.000378781950543,0.050770161579389975,-0.02447164342692007,0
643,0.025719999999999965,4.99972120164681,0.061291436764380286,-0.035186402972756214,0
644,0.025760000000000005,5.000707572102282,0.07181271207711976,-0.045900472975519135,0
645,0.025800000000000045,5.000049991798719,0.08233398751715135,-0.05661385418348226,0
646,0.025840000000000085,5.000049991798719,0.09219768335738154,-0.06666896762181143,0
647,0.025879999999999903,4.99972120164681,0.10436290837996715,-0.07902492282844048,0
648,0.025919999999999943,5.000049991798719,0.11554176395451755,-0.09039382193226295,0
649,0.025959999999999983,5.002022732708393,0.13066609819235642,-0.10570751380738269,0
650,0.026000000000000023,5.000378781950543,0.14381769339134592,-0.11904778151792719,0
651,0.026040000000000063,5.000049991798719,0.1549965494630596,-0.13041462574520926,0
652,0.026080000000000103,5.000707572102282,0.16354508655331312,-0.13915046740824683,0
653,0.02611999999999992,5.000049991798719,0.1780118418144401,-0.15380384443602774,0
654,0.02615999999999996,5.000707572102282,0.18886190841256045,-0.16483985077476718,0
655,0.0262,5.000049991798719,0.1997119751406453,-0.17587517600096142,0
656,0.02624000000000004,5.000378781950543,0.21253478144070864,-0.18888256034356896,0
657,0.02628000000000008,5.000049991798719,0.22371363836201,-0.2002453156422015,0
658,0.0263199999999999,5.000378781950543,0.23620765508232466,-0.21292255186838338,0
659,0.02635999999999994,5.000378781950543,0.2447561929359981,-0.22165363115359485,0
660,0.02639999999999998,5.000049991798719,0.2533047308687444,-0.2303840332440585,0
661,0.02644000000000002,5.000049991798719,0.26218205880541146,-0.23944254886849375,0
662,0.02648000000000006,5.000378781950543,0.2704018069704751,-0.2478428090585995,0
663,0.0265200000000001,5.000378781950543,0.28519735384996026,-0.26281819311096444,0
664,0.026559999999999917,5.000378781950543,0.2914443626025587,-0.26924436499817356,0
665,0.026599999999999957,5.000049991798719,0.2950610518993585,-0.27303954420852605,0
666,0.026639999999999997,5.001036362253937,0.3045959601120244,-0.28275226993420466,0
667,0.026680000000000037,4.99972120164681,0.3068974896950304,-0.2852309454534971,0
668,0.026720000000000077,4.99972120164681,0.31741876786004486,-0.2959286988051706,0
669,0.026759999999999895,5.000049991798719,0.32530972656036417,-0.30399546277289413,0
670,0.026799999999999935,5.000378781950543,0.33024157578129065,-0.3091024481756059,0
671,0.026839999999999975,5.000049991798719,0.3387901144912822,-0.3178254548186511,0
672,0.026880000000000015,5.000378781950543,0.34569470350512066,-0.32490384435693914,0
673,0.026920000000000055,5.000049991798719,0.3509553427871224,-0.33033761759814345,0
674,0.026960000000000095,5.001036362253937,0.3552296122249514,-0.3347843552765019,0
675,0.026999999999999913,5.000707572102282,0.3591750917228678,-0.33890163814605473,0
676,0.027039999999999953,5.000049991798719,0.3647645210392139,-0.3446622068181188,0
677,0.027079999999999993,4.99972120164681,0.36772363069037395,-0.34779179266523597,0
678,0.027120000000000033,5.000049991798719,0.36772363069037395,-0.3479616065607607,0
679,0.027160000000000073,4.99972120164681,0.3703539503878936,-0.3507610787158611,0
680,0.027200000000000113,4.99972120164681,0.3713403202763059,-0.351915940489547,0
681,0.02723999999999993,5.000378781950543,0.3700251604253127,-0.3507686128202943,0
682,0.02727999999999997,5.000378781950543,0.37232669016572273,-0.35323731591081237,0
683,0.02732000000000001,5.000707572102282,0.3733130600561435,-0.3543902011947239,0
684,0.02736000000000005,4.99972120164681,0.3739706399836483,-0.35521363943722145,0
685,0.02740000000000009,4.99972120164681,0.3759433797688381,-0.35735158134011763,0
686,0.02743999999999991,5.000378781950543,0.3769297496629372,-0.35850249803892964,0
687,0.02747999999999995,5.000049991798719,0.38087522924935246,-0.36261187000442685,0
688,0.02751999999999999,4.99972120164681,0.38810860853268414,-0.3700084881316297,0
689,0.02756000000000003,5.000378781950543,0.38876618847019606,-0.37082865427126793,0
690,0.02760000000000007,5.001036362253937,0.39205408816440523,-0.3742784884223595,0
691,0.02764000000000011,5.000378781950543,0.39271166810457614,-0.375097351973693,0
692,0.027679999999999927,4.99972120164681,0.39599956781207035,-0.3785458853491659,0
693,0.027719999999999967,5.000049991798719,0.3973147276981644,-0.38002102986559055,0
694,0.027760000000000007,5.000049991798719,0.39632835778342806,-0.37919399645206037,0
695,0.027800000000000047,5.000049991798719,0.39468440792774523,-0.3777087358799589,0
696,0.027840000000000087,5.000707572102282,0.3940268279862463,-0.3772091989188804,0
697,0.027879999999999905,4.99972120164681,0.3956707778408232,-0.37901054636813347,0
698,0.027919999999999945,4.99972120164681,0.39139650822467714,-0.3748930298812764,0
699,0.027959999999999985,5.000378781950543,0.3917252981944858,-0.37537792943827314,0
700,0.028000000000000025,4.99972120164681,0.3871222386272479,-0.3709303368423259,0
701,0.028040000000000065,5.000378781950543,0.38350554898252653,-0.3674684724821073,0
702,0.028080000000000105,5.000378781950543,0.3841631289169313,-0.3682802369462307,0
703,0.028119999999999923,5.000049991798719,0.3772585396278596,-0.36152919236697983,0
704,0.028159999999999963,5.000049991798719,0.3746282199115991,-0.3590517784783992,0
705,0.028200000000000003,4.99972120164681,0.37298427009255836,-0.3575600965455127,0
706,0.028240000000000043,5.000378781950543,0.3713403202763059,-0.35606777761735126,0
707,0.028280000000000083,5.001036362253937,0.36936758050048596,-0.3542460326778568,0
708,0.0283199999999999,5.000049991798719,0.3654221009609111,-0.350450912871963,0
709,0.02835999999999994,5.000049991798719,0.36377815115750733,-0.34895668865152796,0
710,0.02839999999999998,4.99972120164681,0.3591750917228678,-0.3445027216038765,0
711,0.02844000000000002,5.000049991798719,0.35687356201378634,-0.34234965204332146,0
712,0.02848000000000006,5.000378781950543,0.35621598209791566,-0.3418399009978096,0
713,0.0285200000000001,5.000049991798719,0.35851751180542657,-0.34428862926056986,0
714,0.02855999999999992,5.000049991798719,0.35851751180542657,-0.3444351984665204,0
715,0.02859999999999996,5.000707572102282,0.3611478314778819,-0.34721145896417765,0
716,0.02864,5.000707572102282,0.3604902515590956,-0.346699192461123,0
717,0.02868000000000004,5.000378781950543,0.3591750917228678,-0.34552871960515036,0
718,0.02872000000000008,4.99972120164681,0.3575311419301059,-0.3440288313338646,0
719,0.028759999999999897,4.99972120164681,0.3608190415184327,-0.34746016796427825,0
720,0.028799999999999937,5.000049991798719,0.36575089092192753,-0.35253483091253984,0
721,0.028839999999999977,5.000378781950543,0.36443573107853316,-0.3513618621013288,0
722,0.028880000000000017,5.000049991798719,0.36279178127680795,-0.34985948180659554,0
723,0.028920000000000057,5.000049991798719,0.36377815115750733,-0.3509868006591311,0
724,0.028960000000000097,5.000049991798719,0.3654221009609111,-0.35277107989188194,0
725,0.028999999999999915,4.99972120164681,0.3604902515590956,-0.34797894137221114,0
726,0.029039999999999955,5.000049991798719,0.3591750917228678,-0.3468028748688199,0
727,0.029079999999999995,5.000049991798719,0.35687356201378634,-0.34463982194375636,0
728,0.029120000000000035,5.000378781950543,0.3555584021824939,-0.3434625233507364,0
729,0.029160000000000075,5.000378781950543,0.3549008222675213,-0.3429421901339349,0
730,0.029200000000000115,4.99972120164681,0.3502977628752965,-0.3384757639079834,0
731,0.029239999999999933,4.99972120164681,0.3522705026121238,-0.3405845242899364,0
732,0.029279999999999973,4.99972120164681,0.3460234934594012,-0.33447292427447683,0
733,0.029320000000000013,4.99972120164681,0.34043406425196737,-0.3290182937122505,0
734,0.029360000000000053,5.000049991798719,0.34010527429960447,-0.32882369293135716,0
735,0.029400000000000093,5.000049991798719,0.3391189044431933,-0.3279709037934941,0
736,0.02943999999999991,4.999392411494816,0.33451584512672405,-0.3235008177659538,0
737,0.02947999999999995,5.000378781950543,0.33254310542645343,-0.32166044495076945,0
738,0.02951999999999999,4.99972120164681,0.330899155679342,-0.32014825671313973,0
739,0.02956000000000003,5.000707572102282,0.330899155679342,-0.32027941387770476,0
740,0.02960000000000007,5.000049991798719,0.3292552059350636,-0.31876601798620013,0
741,0.02964000000000011,5.000049991798719,0.32465214666617004,-0.31429291029384004,0
742,0.02967999999999993,5.000049991798719,0.32432335671924334,-0.31409347068517074,0
743,0.02971999999999997,5.000049991798719,0.3236657768257307,-0.3135646409320045,0
744,0.02976000000000001,5.000049991798719,0.3210354572562264,-0.31106247234768963,0
745,0.02980000000000005,5.000049991798719,0.3203778773649874,-0.31053244533161345,0
746,0.02984000000000009,5.000378781950543,0.3184051376940012,-0.3086866614732576,0
747,0.029879999999999907,5.000707572102282,0.31741876786004486,-0.30782665143924487,0
748,0.029919999999999947,5.000049991798719,0.31676118797131,-0.30729483638995153,0
749,0.029959999999999987,4.999392411494816,0.31511723825146676,-0.3057760576035587,0
750,0.030000000000000027,4.999392411494816,0.3111717589354729,-0.30195515637184905,0
751,0.030040000000000067,5.000049991798719,0.31347328853447315,-0.30438067226509424,0
752,0.030080000000000107,5.000378781950543,0.31248691870564554,-0.3035176980018883,0
753,0.030119999999999925,5.000049991798719,0.311829338820331,-0.3029829240172652,0
754,0.030159999999999965,5.000378781950543,0.30952780922532563,-0.30080361172397896,0
755,0.030200000000000005,5.000049991798719,0.307883859518034,-0.2992812917876445,0
756,0.030240000000000045,5.000378781950543,0.30623990981359966,-0.2977583853938556,0
757,0.030280000000000085,4.999392411494816,0.3059111198730558,-0.2975500533763222,0
758,0.030319999999999903,5.000378781950543,0.3016368506563994,-0.2933956577699328,0
759,0.030359999999999943,5.000049991798719,0.2980201613343491,-0.2898982588224997,0
760,0.030399999999999983,4.99972120164681,0.29736258145910344,-0.2893593871655044,0
761,0.030440000000000023,5.000378781950543,0.2950610518993585,-0.2871759847491033,0
762,0.030480000000000063,5.000707572102282,0.29111557266717564,-0.2833480526689822,0
763,0.030520000000000103,5.000049991798719,0.28815646325390515,-0.28050591150226845,0
764,0.03055999999999992,5.000049991798719,0.28684130351766657,-0.2793071421949984,0
765,0.03059999999999996,5.000049991798719,0.2848685639167647,-0.27745021629552113,0
766,0.03064,4.99972120164681,0.28092308472741295,-0.2736199751722087,0
767,0.03068000000000004,5.000049991798719,0.2799367149326714,-0.2727482689023821,0
768,0.03072000000000008,5.000378781950543,0.2819094545231934,-0.27483509857304506,0
769,0.0307599999999999,4.999063621342738,0.2779639753463067,-0.27100313712995316,0
770,0.03079999999999994,5.000378781950543,0.2779639753463067,-0.2711160836178943,0
771,0.03083999999999998,5.000378781950543,0.2759912357641022,-0.2692557203803225,0
772,0.03088000000000002,5.000378781950543,0.2766488156243746,-0.2700251075465046,0
773,0.03092000000000006,5.001036362253937,0.2766488156243746,-0.27013634692030475,0
774,0.0309600000000001,4.99972120164681,0.2717169666836122,-0.2653151705298614,0
775,0.030999999999999917,5.000049991798719,0.26810027747694726,-0.26180858816066543,0
776,0.031039999999999957,5.000049991798719,0.27073059689858564,-0.2645484498195443,0
777,0.031079999999999997,5.000049991798719,0.2634972185069455,-0.2574240501795162,0
778,0.031120000000000037,5.000049991798719,0.26218205880541146,-0.25621730686053135,0
779,0.031160000000000077,5.000049991798719,0.2549486804802404,-0.2490917836673651,0
780,0.031199999999999894,4.99972120164681,0.2536335207908104,-0.2478839189798545,0
781,0.031239999999999934,5.000378781950543,0.25067441149641523,-0.24503154567967994,0
782,0.031279999999999974,5.000378781950543,0.24640014253231585,-0.240863454826405,0
783,0.031320000000000014,5.000049991798719,0.24344103326104927,-0.2380099669087727,0
784,0.031360000000000054,5.000049991798719,0.23653644499830853,-0.2312104443705731,0
785,0.031400000000000095,5.000707572102282,0.23390612567372374,-0.22868463627141222,0
786,0.03143999999999991,4.999392411494816,0.22831669713394426,-0.22319916558978226,0
787,0.03147999999999995,5.000378781950543,0.22305605853933289,-0.21804193261974378,0
788,0.03151999999999999,4.998734831190575,0.22075452916367738,-0.21584325777062535,0
789,0.03156000000000003,5.000049991798719,0.21582268052103293,-0.21101371369385286,0
790,0.03160000000000007,5.001036362253937,0.2148363107956939,-0.21012909971290863,0
791,0.03164000000000011,5.000049991798719,0.21450752088748404,-0.209901517868609,0
792,0.03167999999999993,5.001693942556992,0.21023325209152194,-0.20572791059885767,0
793,0.03171999999999997,5.001036362253937,0.2099044621849689,-0.20549923682538102,0
794,0.03176000000000001,4.99972120164681,0.2099044621849689,-0.20559880871165553,0
795,0.03180000000000005,5.000707572102282,0.20924688237221817,-0.20504025768646514,0
796,0.03184000000000009,5.000049991798719,0.21582268052103293,-0.21171454267395604,0
797,0.03187999999999991,5.001693942556992,0.215165100704022,-0.21115490889829716,0
798,0.03191999999999995,5.001036362253937,0.22108331907413145,-0.21717053366571212,0
799,0.03195999999999999,5.000049991798719,0.21943936952304116,-0.21562345202286326,0
800,0.03200000000000003,5.000049991798719,0.21582268052103293,-0.2121030935967069,0
801,0.03204000000000007,4.99972120164681,0.21549389061246838,-0.21187009808995869,0
802,0.03208000000000011,4.99972120164681,0.21549389061246838,-0.2119653574777606,0
803,0.032119999999999926,5.001036362253937,0.21319236125582722,-0.2097585536565835,0
804,0.032159999999999966,5.000049991798719,0.21319236125582722,-0.2098527465030288,0
805,0.032200000000000006,4.99972120164681,0.2161514704297157,-0.21290551699929314,0
806,0.032240000000000046,5.000378781950543,0.21746663006562844,-0.2143138076000803,0
807,0.032280000000000086,4.99972120164681,0.21582268052103293,-0.21276245983103134,0
808,0.032319999999999904,5.000378781950543,0.21746663006562844,-0.21449848313161288,0
809,0.032359999999999944,5.000049991798719,0.2141787309793924,-0.21130213095315045,0
810,0.032399999999999984,5.000378781950543,0.21648026033851664,-0.21369468154475307,0
811,0.032440000000000024,5.000378781950543,0.2161514704297157,-0.21345638836760908,0
812,0.032480000000000064,5.000049991798719,0.21943936952304116,-0.21683426086778854,0
813,0.032520000000000104,5.000378781950543,0.21812420988429362,-0.2156085524886427,0
814,0.03255999999999992,5.000707572102282,0.21812420988429362,-0.21569748278006173,0
815,0.03259999999999996,5.000049991798719,0.21943936952304116,-0.21710105292262252,0
816,0.03264,4.99972120164681,0.22141210898470348,-0.2191616842825636,0
817,0.03268000000000004,5.000049991798719,0.21976815943302316,-0.21760510920718118,0
818,0.03272000000000008,5.000378781950543,0.22239847871712737,-0.2203222867306261,0
819,0.0327599999999999,4.999063621342738,0.22239847871712737,-0.2204086299194899,0
820,0.03279999999999994,4.99972120164681,0.22239847871712737,-0.2204944592458024,0
821,0.03283999999999998,5.000378781950543,0.22535758792076513,-0.2235388851025603,0
822,0.03288000000000002,5.001365152405508,0.22272726862817116,-0.22099337098067434,0
823,0.03292000000000006,5.000378781950543,0.22535758792076513,-0.223707985153753,0
824,0.0329600000000001,5.000049991798719,0.2256863778328696,-0.22412056084970414,0
825,0.03299999999999992,5.000378781950543,0.22239847871712737,-0.22091593961613973,0
826,0.03303999999999996,5.001036362253937,0.22305605853933289,-0.2216562906151949,0
827,0.03308,5.000378781950543,0.2217408988953935,-0.2204233966404767,0
828,0.03312000000000004,4.999392411494816,0.22075452916367738,-0.21951878826940033,0
829,0.03316000000000008,4.99972120164681,0.2204257392533413,-0.21927125661150465,0
830,0.033199999999999896,5.000378781950543,0.2204257392533413,-0.21935201295745033,0
831,0.033239999999999936,5.000049991798719,0.21812420988429362,-0.21713073923086781,0
832,0.033279999999999976,5.000378781950543,0.2184529997938034,-0.21753928528367392,0
833,0.033320000000000016,5.000049991798719,0.21746663006562844,-0.21663217340522314,0
834,0.033360000000000056,5.000707572102282,0.21746663006562844,-0.21671093416824497,0
835,0.033400000000000096,5.000049991798719,0.21384994107141908,-0.2131725100584859,0
836,0.033439999999999914,5.000049991798719,0.2141787309793924,-0.2135790701817179,0
837,0.033479999999999954,5.000378781950543,0.20891809246602056,-0.20839570842502947,0
838,0.033519999999999994,5.000049991798719,0.20661656312595558,-0.20617096359491344,0
839,0.033560000000000034,5.000707572102282,0.20431503379170154,-0.2039457277369267,0
840,0.033600000000000074,5.000378781950543,0.20431503379170154,-0.20402153139376472,0
841,0.033640000000000114,5.000378781950543,0.20332866407880126,-0.20311047673371202,0
842,0.03367999999999993,5.000378781950543,0.20069834484962568,-0.2005549851700068,0
843,0.03371999999999997,4.999392411494816,0.19938318523788956,-0.19931416705413907,0
844,0.03376000000000001,5.000049991798719,0.1924785973075063,-0.19248343566894754,0
845,0.03380000000000005,4.99972120164681,0.1937937569092451,-0.19387196808526447,0
846,0.03384000000000009,5.000378781950543,0.19083464780801468,-0.19098574928918693,0
847,0.03387999999999991,5.001036362253937,0.1898482781097507,-0.1900717886089523,0
848,0.03391999999999995,4.99972120164681,0.18491642963454402,-0.18521186908805337,0
849,0.03395999999999999,5.000049991798719,0.18327248014878164,-0.18363936971736744,0
850,0.03400000000000003,4.99972120164681,0.18097095087373707,-0.18140881294373484,0
851,0.03404000000000007,4.99972120164681,0.1763678923412454,-0.17687625052562117,0
852,0.03408000000000011,5.000378781950543,0.17176483383224878,-0.17234321297165134,0
853,0.03411999999999993,5.000378781950543,0.17110725404716948,-0.17175518021097008,0
854,0.03415999999999997,5.000049991798719,0.17077846415480996,-0.17149546464213072,0
855,0.03420000000000001,5.000049991798719,0.1661754056743946,-0.16696100901512417,0
856,0.03424000000000005,5.001036362253937,0.16420266633286126,-0.16505640228865798,0
857,0.03428000000000009,5.000049991798719,0.16288750677424663,-0.16380890633952994,0
858,0.034319999999999906,5.000049991798719,0.15894202810996905,-0.15993062351289983,0
859,0.034359999999999946,5.000049991798719,0.15762686855906824,-0.15868219326251665,0
860,0.034399999999999986,5.000049991798719,0.15598291912315737,-0.15710450782565888,0
861,0.034440000000000026,5.000049991798719,0.1520374404892899,-0.15322482912598973,0
862,0.034480000000000066,4.99972120164681,0.15105107083354244,-0.15230379657712784,0
863,0.034520000000000106,5.000378781950543,0.14809196187283277,-0.14940956313445403,0
864,0.034559999999999924,5.002022732708393,0.1474343821051176,-0.1488163985352966,0
865,0.034599999999999964,5.000378781950543,0.14381769339134592,-0.14526366588087253,0
866,0.034640000000000004,5.000049991798719,0.1444752731563955,-0.14598474383721266,0
867,0.034680000000000044,5.000378781950543,0.13954342493035102,-0.14111593717642773,0
868,0.034720000000000084,5.000378781950543,0.1408585844546266,-0.14249368288281877,0
869,0.0347599999999999,4.999392411494816,0.1408585844546266,-0.14255581492552621,0
870,0.03479999999999994,5.000049991798719,0.13526915648987867,-0.13702806610865137,0
871,0.03483999999999998,4.99972120164681,0.13789947552773896,-0.1397196126449501,0
872,0.03488000000000002,4.999392411494816,0.13296762733813555,-0.13484854155056458,0
873,0.03492000000000006,5.000378781950543,0.13296762733813555,-0.13490886948957792,0
874,0.0349600000000001,4.99972120164681,0.13066609819235642,-0.1326672203744133,0
875,0.03499999999999992,5.001036362253937,0.13362520709516806,-0.13568576264802434,0
876,0.03503999999999996,5.000049991798719,0.12935093868316216,-0.13147048219635254,0
877,0.03508,5.000378781950543,0.12836456905254606,-0.1305426563657094,0
878,0.03512000000000004,5.000049991798719,0.12803577917591782,-0.1302719673795394,0
879,0.03516000000000008,5.000049991798719,0.12935093868316216,-0.13164478611930375,0
880,0.0351999999999999,4.999063621342738,0.12770698929941152,-0.13005805556242978,0
881,0.03523999999999994,5.000378781950543,0.12474788041634353,-0.1271557263535965,0
882,0.03527999999999998,5.000049991798719,0.12836456905254606,-0.1308287567650882,0
883,0.03532000000000002,5.000378781950543,0.12935093868316216,-0.1318710315264281,0
884,0.03536000000000006,5.000049991798719,0.1257342500429348,-0.12830981262741115,0
885,0.0354000000000001,5.000049991798719,0.12770698929941152,-0.13033758749129676,0
886,0.035439999999999916,5.000707572102282,0.12935093868316216,-0.13203613960501415,0
887,0.035479999999999956,5.000049991798719,0.1286933589292962,-0.13143273096066854,0
888,0.035519999999999996,5.001365152405508,0.1270494095467647,-0.12984252232483084,0
889,0.035560000000000036,5.000378781950543,0.13165246782553117,-0.13449889224569744,0
890,0.035600000000000076,4.99972120164681,0.13198125770349964,-0.13488056592000636,0
891,0.035639999999999894,5.000049991798719,0.13066609819235642,-0.13361786361886785,0
892,0.035679999999999934,5.000378781950543,0.12836456905254606,-0.13136836636272953,0
893,0.035719999999999974,5.000378781950543,0.13198125770349964,-0.135036662831593,0
894,0.035760000000000014,5.000378781950543,0.12935093868316216,-0.13245752882453043,0
895,0.035800000000000054,5.000378781950543,0.12902214880616825,-0.1321795024178481,0
896,0.035840000000000094,4.99972120164681,0.12540546016728232,-0.12861315696851472,0
897,0.03587999999999991,5.000707572102282,0.1257342500429348,-0.12899187101568588,0
898,0.03591999999999995,5.000049991798719,0.12540546016728232,-0.12871258755675224,0
899,0.03595999999999999,5.000049991798719,0.12178877154316266,-0.12514498885828218,0
900,0.03600000000000003,5.000378781950543,0.12014482217344924,-0.1235497141873646,0
901,0.03604000000000007,5.000049991798719,0.12310393104113287,-0.1265570837916789,0
902,0.03608000000000011,5.000378781950543,0.1234327209159308,-0.12693372170609274,0
903,0.03611999999999993,5.000378781950543,0.12178877154316266,-0.12533720894152628,0
904,0.03615999999999997,5.000707572102282,0.12310393104113287,-0.1266993948823229,0
905,0.03620000000000001,5.000049991798719,0.12441909054105722,-0.12806117192616395,0
906,0.03624000000000005,5.000049991798719,0.12441909054105722,-0.1281073818380516,0
907,0.03628000000000009,5.000049991798719,0.12770698929941152,-0.13144108414354821,0
908,0.03631999999999991,5.001036362253937,0.12606303991870926,-0.1298425332129185,0
909,0.03635999999999995,5.000049991798719,0.12967972856027796,-0.13350421647554533,0
910,0.03639999999999999,5.000378781950543,0.1300085184375156,-0.13387759841325086,0
911,0.03644000000000003,5.000049991798719,0.12639182979460575,-0.1303051005390009,0
912,0.03648000000000007,4.999392411494816,0.13066609819235642,-0.13462315968273275,0
913,0.03652000000000011,4.999063621342738,0.13329641721659097,-0.13729687069973534,0
914,0.036559999999999926,4.99972120164681,0.13494036661069325,-0.1389838146031822,0
915,0.036599999999999966,4.999392411494816,0.13592673624861432,-0.14001278253712646,0
916,0.036640000000000006,5.000707572102282,0.1382282654080184,-0.14235651504963526,0
917,0.036680000000000046,5.000378781950543,0.1392146350495857,-0.14338469437208134,0
918,0.036720000000000086,5.000049991798719,0.1415161642174927,-0.1457276408196127,0
919,0.036759999999999904,5.000378781950543,0.1408585844546266,-0.14511108720635485,0
920,0.036799999999999944,5.000049991798719,0.14348890350900304,-0.1477820425518171,0
921,0.036839999999999984,5.000049991798719,0.145461642804879,-0.14979502955199447,0
922,0.036880000000000024,5.000378781950543,0.1441464832738101,-0.14851973041041383,0
923,0.036920000000000064,5.000049991798719,0.14480406303910212,-0.1492167845225747,0
924,0.036960000000000104,5.000707572102282,0.14283132374468102,-0.1472831348048083,0
925,0.03699999999999992,5.000049991798719,0.13757068564758101,-0.14206120278675416,0
926,0.03703999999999996,5.000378781950543,0.13526915648987867,-0.13979799748328314,0
927,0.03708,5.000378781950543,0.12967972856027796,-0.13424651245607183,0
928,0.03712000000000004,5.000049991798719,0.1286933589292962,-0.13329770604877722,0
929,0.03716000000000008,5.000049991798719,0.12474788041634353,-0.12938941235410478,0
930,0.0371999999999999,4.998734831190575,0.12113119179491064,-0.12580953141898582,0
931,0.03723999999999994,5.001036362253937,0.1158705538265029,-0.12058532527850013,0
932,0.03727999999999998,4.99972120164681,0.11356902472517753,-0.11831985342040202,0
933,0.03732000000000002,5.000378781950543,0.10929475641007817,-0.11408126903764304,0
934,0.03736000000000006,5.000707572102282,0.10830838680184553,-0.11313021132477186,0
935,0.0374000000000001,5.000378781950543,0.10600685772026662,-0.11086362337557226,0
936,0.03743999999999992,5.000049991798719,0.10567806785196096,-0.11056940515073876,0
937,0.03747999999999996,4.99972120164681,0.1033765387772625,-0.10830207950474763,0
938,0.03752,5.000378781950543,0.10271895904274086,-0.10767833625836709,0
939,0.03756000000000004,4.99972120164681,0.10074621984212842,-0.10573906787957404,0
940,0.03760000000000008,5.000378781950543,0.10041742997579037,-0.10544338444301365,0
941,0.037639999999999896,4.99972120164681,0.10534927798377816,-0.1104079757630419,0
942,0.037679999999999936,5.000378781950543,0.09877348064594688,-0.1038645598938317,0
943,0.037719999999999976,5.000378781950543,0.09943106037751487,-0.10455416052492122,0
944,0.037760000000000016,5.000049991798719,0.10107500970858954,-0.10622977146072926,0
945,0.037800000000000056,5.000707572102282,0.10206137930871124,-0.1072474446450879,0
946,0.037840000000000096,4.999063621342738,0.09910227051166931,-0.10431928268604734,0
947,0.037879999999999914,5.000378781950543,0.10074621984212842,-0.10599382338249208,0
948,0.037919999999999954,4.99972120164681,0.10173258944188096,-0.10701043015038247,0
949,0.037959999999999994,5.000378781950543,0.10600685772026662,-0.11131458267316313,0
950,0.038000000000000034,4.99972120164681,0.10732201719471773,-0.11265927474229814,0
951,0.038040000000000074,5.000049991798719,0.10830838680184553,-0.11367482656834682,0
952,0.038080000000000114,5.000707572102282,0.11192507537076382,-0.11732034825427662,0
953,0.03811999999999993,5.000378781950543,0.11850087280679227,-0.12392463097915507,0
954,0.03815999999999997,5.001036362253937,0.11948724242641957,-0.12493913933310308,0
955,0.03820000000000001,4.99972120164681,0.12178877154316266,-0.12726846190314312,0
956,0.03824000000000005,5.000707572102282,0.12244635129190345,-0.1279534910975259,0
957,0.03828000000000009,5.000049991798719,0.1250766702917519,-0.130610916808583,0
958,0.03831999999999991,5.000378781950543,0.12376151079085085,-0.12932252255752008,0
959,0.03835999999999995,5.000049991798719,0.12474788041634353,-0.1303353172443738,0
960,0.03839999999999999,4.999392411494816,0.1300085184375156,-0.13562204141114315,0
961,0.03844000000000003,4.99972120164681,0.13198125770349964,-0.13762052917948359,0
962,0.03848000000000007,5.000049991798719,0.13033730831487508,-0.13600199192229645,0
963,0.03852000000000011,4.999392411494816,0.13231004758158987,-0.13799980822163954,0
964,0.03855999999999993,4.99972120164681,0.13329641721659097,-0.13901092106234753,0
965,0.03859999999999997,5.000378781950543,0.13855705528841938,-0.14429596978461662,0
966,0.03864000000000001,4.99972120164681,0.14644801245445316,-0.15221100631723733,0
967,0.03868000000000005,5.000378781950543,0.1487495416410322,-0.15453628485770954,0
968,0.03872000000000009,5.000378781950543,0.15598291912315737,-0.16179308295193073,0
969,0.038759999999999906,5.000378781950543,0.16486024611289096,-0.17069350308258696,0
970,0.038799999999999946,5.000378781950543,0.16979209447845212,-0.1756481183882369,0
971,0.038839999999999986,4.999392411494816,0.17669668223564464,-0.18257514815473005,0
972,0.038880000000000026,5.000378781950543,0.17932700139515245,-0.18522758566249228,0
973,0.038920000000000066,5.000049991798719,0.18458763973715245,-0.1905100199611283,0
974,0.038960000000000106,4.99972120164681,0.1924785973075063,-0.1984224523656029,0
975,0.038999999999999924,5.000049991798719,0.19346496700863167,-0.19942997704710141,0
976,0.039039999999999964,5.000049991798719,0.19806802562805587,-0.2040538720615727,0
977,0.039080000000000004,5.000378781950543,0.20267108427079472,-0.208677449782098,0
978,0.039120000000000044,5.000378781950543,0.20595898331557555,-0.2119855518551035,0
979,0.039160000000000084,5.001693942556992,0.20398624388728276,-0.2100327006727963,0
980,0.0391999999999999,5.000049991798719,0.20168471455967557,-0.20775074607587166,0
981,0.03923999999999994,5.000049991798719,0.1937937569092451,-0.19987905090736044,0
982,0.03927999999999998,5.000049991798719,0.18721795891963036,-0.19332220441703438,0
983,0.03932000000000002,5.000378781950543,0.1763678923412454,-0.1824907796210228,0
984,0.03936000000000006,4.99972120164681,0.1619011371065503,-0.16804235771707365,0
985,0.0394000000000001,5.000378781950543,0.15006470117888354,-0.15622394793337535,0
986,0.03943999999999992,5.000707572102282,0.14644801245445316,-0.15262497943053827,0
987,0.03947999999999996,5.000049991798719,0.14677680233788687,-0.15297118487713401,0
988,0.03952,5.001036362253937,0.15105107083354244,-0.1572625655409951,0
989,0.03956000000000004,5.000049991798719,0.15762686855906824,-0.16385517330276528,0
990,0.03960000000000008,5.000049991798719,0.16387387644302698,-0.17011869035351374,0
991,0.0396399999999999,4.99972120164681,0.17242241361780836,-0.1786834370876379,0
992,0.03967999999999994,5.000378781950543,0.18097095087373707,-0.1872478855569618,0
993,0.03971999999999998,4.99972120164681,0.18754674881797762,-0.19383929762963098,0
994,0.03976000000000002,5.001036362253937,0.19017706800905274,-0.1964849351246204,0
995,0.03980000000000006,5.001036362253937,0.19214980740736953,-0.19847269826225053,0
996,0.0398400000000001,5.001036362253937,0.19182101750735198,-0.1981586387963101,0
997,0.039879999999999916,4.999392411494816,0.19872560543273488,-0.20507766510934022,0
998,0.039919999999999956,5.000049991798719,0.20036955494651332,-0.2067357622225742,0
999,0.039959999999999996,5.001036362253937,0.20431503379170154,-0.21069509913668677,0
1000,0.040000000000000036,4.998406041038327,0.20234229436696954,-0.20873592950742004,0
1001,0.040040000000000076,5.000378781950543,0.20530140350567,-0.21170832142460086,0
1002,0.040080000000000116,5.000707572102282,0.204643823696239,-0.2110637386325319,0
1003,0.040119999999999933,4.999392411494816,0.20267108427079472,-0.20910371171858103,0
1004,0.040159999999999973,4.999392411494816,0.19510891651289003,-0.20155397322092447,0
1005,0.040200000000000014,4.997748460733576,0.19149222760745366,-0.1979494315784779,0
1006,0.040240000000000054,5.000707572102282,0.18557400942968563,-0.19204307991978228,0
1007,0.040280000000000094,5.000378781950543,0.17834063170943854,-0.1848212892273754,0
1008,0.04031999999999991,5.001036362253937,0.1684769349116572,-0.17496890121822167,0
1009,0.04035999999999995,5.001365152405508,0.15729807867164466,-0.16380107677896866,0
1010,0.04039999999999999,5.001036362253937,0.145461642804879,-0.1519753969757549,0
1011,0.04044000000000003,5.000378781950543,0.13066609819235642,-0.13719033393954333,0
1012,0.04048000000000007,5.000707572102282,0.10929475641007817,-0.11582920049559908,0
1013,0.04052000000000011,5.000707572102282,0.08627946583988738,-0.092823846274316,0
1014,0.04055999999999993,4.99972120164681,0.06063385706157101,-0.06718790310330908,0
1015,0.04059999999999997,5.000049991798719,0.0313715607935042,-0.0379350029480493,0
1016,0.04064000000000001,4.99972120164681,0.004082004499051814,-0.010654574518255688,0
1017,0.04068000000000005,5.000378781950543,-0.021563601822605624,0.014982170941288675,0
1018,0.04072000000000009,5.000049991798719,-0.0491819462191435,0.04259192023341657,0
1019,0.04075999999999991,5.000707572102282,-0.07219723251891826,0.0655988759424107,0
1020,0.04079999999999995,5.000378781950543,-0.09126704068339796,0.08466061678644393,0
1021,0.04083999999999999,4.99972120164681,-0.10836410969701198,0.10174988050743805,0
1022,0.04088000000000003,4.99972120164681,-0.11428232581100171,0.10766055211492387,0
1023,0.04092000000000007,4.99972120164681,-0.12315964990164728,0.11653059124427656,0
1024,0.04096000000000011,5.000378781950543,-0.12578996813217858,0.11915388281863604,0
1025,0.040999999999999925,4.99972120164681,-0.1251323885753416,0.11848953367148296,0
1026,0.041039999999999965,5.000378781950543,-0.11921417253994292,0.11256480387319123,0
1027,0.041080000000000005,5.000378781950543,-0.11493990537658023,0.10828427753676906,0
1028,0.041120000000000045,5.000049991798719,-0.10047315481186896,0.09381152115209501,0
1029,0.041160000000000085,4.99972120164681,-0.09093825089119083,0.08427086352867624,0
1030,0.0411999999999999,5.000378781950543,-0.07416997131494572,0.06749708113190972,0
1031,0.04123999999999994,4.99972120164681,-0.06529264669586828,0.05861450334040791,0
1032,0.04127999999999998,5.000707572102282,-0.05674411178783788,0.05006096367481888,0
1033,0.04132000000000002,5.000378781950543,-0.05082589526164695,0.04413798957360293,0
1034,0.04136000000000006,5.000378781950543,-0.04359251945043667,0.0369001021384785,0
1035,0.0414000000000001,5.000049991798719,-0.04720920736386795,0.04051252314860143,0
1036,0.04143999999999992,5.000049991798719,-0.052469844300912574,0.04576913667336635,0
1037,0.04147999999999996,4.99972120164681,-0.05575774236972354,0.04905325359228552,0
1038,0.04152,4.999392411494816,-0.0629911180754263,0.0562830891827894,0
1039,0.04156000000000004,4.999392411494816,-0.07416997131494572,0.06745864211506264,0
1040,0.04160000000000008,5.000049991798719,-0.08534882440360501,0.07863443347865162,0
1041,0.0416399999999999,5.000049991798719,-0.09751404671038476,0.09079683141773265,0
1042,0.04167999999999994,5.000049991798719,-0.1100080586218566,0.10328825509505457,0
1043,0.04171999999999998,5.000378781950543,-0.12217328056301004,0.1154511237127751,0
1044,0.04176000000000002,5.000049991798719,-0.12710512724426004,0.12038085075947724,0
1045,0.04180000000000006,5.000707572102282,-0.13466729209748313,0.12794112844621375,0
1046,0.0418400000000001,4.99972120164681,-0.13828397961110772,0.13155616004160708,0
1047,0.04187999999999992,5.000049991798719,-0.1330233432223299,0.12629409776407252,0
1048,0.04191999999999996,5.000378781950543,-0.13664003074327558,0.1299095882079897,0
1049,0.04196,4.99972120164681,-0.13400971254782096,0.12727830053053113,0
1050,0.04200000000000004,4.99972120164681,-0.1310506045677572,0.12431844944783582,0
1051,0.04204000000000008,4.99972120164681,-0.1290778659083996,0.122345192850629,0
1052,0.042079999999999895,5.000049991798719,-0.11888538275893985,0.11215241571458312,0
1053,0.042119999999999935,5.000707572102282,-0.1136247462448944,0.1068917079527748,0
1054,0.042159999999999975,5.000378781950543,-0.10474742205074437,0.09801453403833438,0
1055,0.042200000000000015,5.000378781950543,-0.09915799565696932,0.09242547824148772,0
1056,0.042240000000000055,5.000378781950543,-0.09422614880735543,0.08749422109687349,0
1057,0.042280000000000095,4.99972120164681,-0.08896551213519292,0.08223439202974986,0
1058,0.04231999999999991,5.000049991798719,-0.08929430192818714,0.08256420612091353,0
1059,0.04235999999999995,5.000049991798719,-0.09126704068339796,0.08453818466164831,0
1060,0.04239999999999999,5.000049991798719,-0.09488372838901253,0.08815632643550558,0
1061,0.04244000000000003,4.998734831190575,-0.09587009776051285,0.08914436295448025,0
1062,0.04248000000000007,5.000707572102282,-0.10047315481186896,0.09374929903021195,0
1063,0.04252000000000011,5.000049991798719,-0.10540500162397977,0.09868323554243419,0
1064,0.04255999999999993,5.000378781950543,-0.11099442797517921,0.10427496106948869,0
1065,0.04259999999999997,5.000378781950543,-0.11691264407014172,0.11019568461724022,0
1066,0.04264000000000001,5.000049991798719,-0.12348843968092783,0.11677419476012996,0
1067,0.04268000000000005,5.000378781950543,-0.13072181479152978,0.12401049028572897,0
1068,0.04272000000000009,5.000378781950543,-0.13137939434385165,0.12467119494072754,0
1069,0.04275999999999991,5.000049991798719,-0.13664003074327558,0.12993515993650934,0
1070,0.04279999999999995,4.99972120164681,-0.1379551898378077,0.1312538499283052,0
1071,0.04283999999999999,5.000049991798719,-0.13433850232271854,0.12764089441984144,0
1072,0.04288000000000003,4.99972120164681,-0.13433850232271854,0.12764482634552204,0
1073,0.04292000000000007,5.000049991798719,-0.13631124096930963,0.12962169564779003,0
1074,0.04296000000000011,5.000378781950543,-0.1333521329976266,0.12666691587397633,0
1075,0.04299999999999993,5.000049991798719,-0.13039302501516953,0.12371233244504021,0
1076,0.04303999999999997,4.99972120164681,-0.1267763374664388,0.12010036462021201,0
1077,0.04308000000000001,5.000049991798719,-0.12644754768848476,0.11977648855255008,0
1078,0.04312000000000005,5.000707572102282,-0.12414601923909123,0.11748006661713217,0
1079,0.04316000000000009,4.99972120164681,-0.12020054188215752,0.11353988739644533,0
1080,0.043199999999999905,5.000378781950543,-0.11921417253994292,0.11255900663263813,0
1081,0.043239999999999945,5.000049991798719,-0.11625506450615032,0.10960557644061242,0
1082,0.043279999999999985,5.000049991798719,-0.11559748494162976,0.10895386280373404,0
1083,0.043320000000000025,5.000707572102282,-0.11263837689474214,0.1060008075942045,0
1084,0.043360000000000065,5.000378781950543,-0.11099442797517921,0.10436309724688825,0
1085,0.043400000000000105,5.001036362253937,-0.10704895055476103,0.10042404296011898,0
1086,0.04343999999999992,5.000378781950543,-0.10770653012615032,0.10108822905442166,0
1087,0.04347999999999996,5.000378781950543,-0.10113073438852911,0.09451922205819735,0
1088,0.04352,5.000378781950543,-0.10145952417666172,0.09485498163679346,0
1089,0.04356000000000004,5.000378781950543,-0.0971852569206733,0.09058786405229013,0
1090,0.04360000000000008,5.000378781950543,-0.08863672234206758,0.08204665785952664,0
1091,0.0436399999999999,5.000049991798719,-0.08863672234206758,0.08205416379444957,0
1092,0.04367999999999994,5.000707572102282,-0.08304729583888733,0.07647241961139228,0
1093,0.04371999999999998,5.000378781950543,-0.07811544889290346,0.07154843020825424,0
1094,0.04376000000000002,5.000378781950543,-0.07482755091257769,0.06826856383243135,0
1095,0.04380000000000006,4.99972120164681,-0.06989570391761903,0.06334492134398556,0
1096,0.0438400000000001,5.000049991798719,-0.0629911180754263,0.056448711752094816,0
1097,0.04387999999999992,5.000378781950543,-0.06036079964426265,0.05382694015823555,0
1098,0.04391999999999996,4.99972120164681,-0.05378500352999273,0.04725986031292709,0
1099,0.04396,5.000378781950543,-0.05181226468559495,0.04529600601525122,0
1100,0.04400000000000004,4.999392411494816,-0.04951073602790314,0.04300352902960097,0
1101,0.04404000000000008,5.000378781950543,-0.04293493982813261,0.036436950476213786,0
1102,0.0440799999999999,4.99972120164681,-0.04063341114600001,0.03414480426529942,0
1103,0.04411999999999994,5.000049991798719,-0.03438640469119987,0.02790734395852379,0
1104,0.04415999999999998,5.000049991798719,-0.028796977823800904,0.022327625769412912,0
1105,0.04420000000000002,5.000049991798719,-0.024522710194243194,0.018063228203356846,0
1106,0.04424000000000006,5.000049991798719,-0.01696054433496612,0.010511092649245074,0
1107,0.0442800000000001,5.000049991798719,-0.014001435936796827,0.007562173655861426,0
1108,0.044319999999999915,5.000049991798719,-0.007754429284417372,0.0013255143673586989,0
1109,0.044359999999999955,5.000049991798719,-0.0018362124133269458,-0.004582198319771857,0
1110,0.044399999999999995,5.000049991798719,0.0027668451816259126,-0.009174596048160844,0
1111,0.044440000000000035,5.000378781950543,0.006054743479005864,-0.012451679932315662,0
1112,0.044480000000000075,4.999392411494816,0.013945699444547363,-0.020331668072370163,0
1113,0.044520000000000115,5.000049991798719,0.01953512663099438,-0.02590997515391702,0
1114,0.04455999999999993,4.999063621342738,0.024466974178816228,-0.030830551448716326,0
1115,0.04459999999999997,5.000049991798719,0.031700350633686175,-0.038052506632167055,0
1116,0.04464000000000001,5.000049991798719,0.033015509995673945,-0.03935609583249253,0
1117,0.04468000000000005,4.999392411494816,0.03696098809372539,-0.04328985600521332,0
1118,0.04472000000000009,5.000049991798719,0.036303408409458296,-0.04262041175693601,0
1119,0.04475999999999991,5.000378781950543,0.043865574808886185,-0.05017056807707021,0
1120,0.04479999999999995,5.000049991798719,0.04255041543029908,-0.0488432542257021,0
1121,0.04483999999999999,5.000378781950543,0.04748226311035131,-0.05376280415967516,0
1122,0.04488000000000003,4.99972120164681,0.04748226311035131,-0.05375036425887325,0
1123,0.04492000000000007,5.000049991798719,0.04781105295669137,-0.05406657316664368,0
1124,0.04496000000000011,5.000049991798719,0.04912621234330475,-0.055369011692247505,0
1125,0.04499999999999993,5.000049991798719,0.04781105295669137,-0.05404099263587803,0
1126,0.04503999999999997,5.000378781950543,0.04748226311035131,-0.05369920542308751,0
1127,0.04508000000000001,4.99972120164681,0.04748226311035131,-0.05368607147034701,0
1128,0.04512000000000005,5.001036362253937,0.046495893572083224,-0.052686432501798275,0
1129,0.04516000000000009,4.99972120164681,0.045838313880531376,-0.05201544900951455,0
1130,0.04519999999999991,5.000049991798719,0.04287920527475757,-0.04904280333797875,0
1131,0.04523999999999995,4.99972120164681,0.037947357621069405,-0.04409728645724545,0
1132,0.04527999999999999,5.000049991798719,0.030385191273714543,-0.036521319823628495,0
1133,0.04532000000000003,5.000378781950543,0.026110923367741706,-0.03223312167255554,0
1134,0.04536000000000007,5.000378781950543,0.01953512663099438,-0.025643265830555262,0
1135,0.04540000000000011,4.99972120164681,0.011315380781244458,-0.017409333112384295,0
1136,0.045439999999999925,4.99972120164681,0.0030956350107915753,-0.009175273805619694,0
1137,0.045479999999999965,4.99972120164681,-0.007754429284417372,0.0016892296002280205,0
1138,0.045520000000000005,5.000049991798719,-0.019590862902407788,0.0135402268113414,0
1139,0.045560000000000045,5.000049991798719,-0.02781060837275358,0.02177465926717892,0
1140,0.045600000000000085,4.99972120164681,-0.04063341114600001,0.03461227132990427,0
1141,0.0456399999999999,5.000378781950543,-0.05181226468559495,0.04580605537632404,0
1142,0.04567999999999994,4.99972120164681,-0.06101837925283336,0.055027220582838154,0
1143,0.04571999999999998,5.000049991798719,-0.07121086311914367,0.06523487413773277,0
1144,0.04576000000000002,4.99972120164681,-0.07844423869021762,0.07248353736531704,0
1145,0.04580000000000006,5.000378781950543,-0.08929430192818714,0.083349005148106,0
1146,0.0458400000000001,5.000378781950543,-0.10145952417666172,0.09552974775186451,0
1147,0.04587999999999992,4.99972120164681,-0.1027746833278755,0.09686054199276045,0
1148,0.04591999999999996,5.000049991798719,-0.11493990537658023,0.10904151279126378,0
1149,0.04596,5.000049991798719,-0.12250207034268835,0.11661953909479622,0
1150,0.04600000000000004,5.000049991798719,-0.12414601923909123,0.11827946084555563,0
1151,0.04604000000000008,4.99972120164681,-0.12809149657692737,0.1222410214857903,0
1152,0.0460799999999999,4.99972120164681,-0.13466729209748313,0.12883300968970618,0
1153,0.04611999999999994,5.000378781950543,-0.13861276938427458,0.13279478797555477,0
1154,0.04615999999999998,4.999392411494816,-0.145188564819613,0.1393869916622047,0
1155,0.04620000000000002,5.000707572102282,-0.14255824665188005,0.13677318793642362,0
1156,0.04624000000000006,5.000707572102282,-0.14584614436021137,0.1400777052175679,0
1157,0.0462800000000001,4.99972120164681,-0.14946283182395104,0.14371111632704292,0
1158,0.04631999999999992,4.99972120164681,-0.14979162159258003,0.14405673275823838,0
1159,0.04635999999999996,4.99972120164681,-0.148476462517262,0.1427585023080799,0
1160,0.0464,4.999063621342738,-0.14749009320937,0.14178916253556173,0
1161,0.04644000000000004,4.99972120164681,-0.1481476727480983,0.142463871469365,0
1162,0.04648000000000008,5.000049991798719,-0.148805252286292,0.14313867921369355,0
1163,0.046519999999999895,5.001036362253937,-0.14387340573681423,0.1382241586346475,0
1164,0.046559999999999935,4.99972120164681,-0.14091429779271097,0.135282473380393,0
1165,0.046599999999999975,5.000378781950543,-0.14124308756481152,0.13562878151876895,0
1166,0.046640000000000015,5.000707572102282,-0.14124308756481152,0.13564639452037625,0
1167,0.046680000000000055,5.000049991798719,-0.14025671824810987,0.13467773180142084,0
1168,0.046720000000000095,5.000049991798719,-0.13565366142097834,0.1300924741308882,0
1169,0.04675999999999991,4.999063621342738,-0.13269455344690018,0.12715125683688833,0
1170,0.04679999999999995,4.99972120164681,-0.13006423523867633,0.12453891979876847,0
1171,0.04683999999999999,5.000049991798719,-0.13203697389564184,0.1265297290843344,0
1172,0.04688000000000003,4.99972120164681,-0.1297354454620503,0.1242463597082406,0
1173,0.04692000000000007,5.000378781950543,-0.12414601923909123,0.11867517994401333,0
1174,0.04696000000000011,5.000378781950543,-0.12217328056301004,0.1167207741021761,0
1175,0.04699999999999993,4.99972120164681,-0.12315964990164728,0.11772556162679443,0
1176,0.04703999999999997,5.000378781950543,-0.1182278031965366,0.11281221743757877,0
1177,0.04708000000000001,5.001365152405508,-0.11559748494162976,0.1102004850086151,0
1178,0.04712000000000005,5.000378781950543,-0.11855659297780442,0.11317826116287841,0
1179,0.04716000000000009,5.000049991798719,-0.11230958711109378,0.10695000469046706,0
1180,0.04719999999999991,5.000378781950543,-0.1103368484064295,0.10499609564235116,0
1181,0.04723999999999995,5.000049991798719,-0.11132321775935598,0.10600137390209174,0
1182,0.04727999999999999,4.99972120164681,-0.10836410969701198,0.10306125298682783,0
1183,0.04732000000000003,5.000707572102282,-0.1100080586218566,0.10472426629100759,0
1184,0.04736000000000007,4.999392411494816,-0.1103368484064295,0.10507219668115397,0
1185,0.04740000000000011,4.99972120164681,-0.10869289948224485,0.1034474635847635,0
1186,0.04743999999999993,5.000378781950543,-0.10474742205074437,0.09952127620126444,0
1187,0.04747999999999997,5.000049991798719,-0.1027746833278755,0.09756790074660024,0
1188,0.04752000000000001,5.000378781950543,-0.10080194460026483,0.09561459750940773,0
1189,0.04756000000000005,5.000378781950543,-0.0998155752346823,0.09464773486048683,0
1190,0.04760000000000009,4.99972120164681,-0.10113073438852911,0.09598247096329315,0
1191,0.047639999999999905,5.000707572102282,-0.10178831396466272,0.09665969672876837,0
1192,0.047679999999999945,5.000049991798719,-0.10145952417666172,0.09635062138061021,0
1193,0.047719999999999985,5.001036362253937,-0.09882920586791545,0.09374008477436727,0
1194,0.047760000000000025,5.000707572102282,-0.09685646713083039,0.09178719401665006,0
1195,0.047800000000000065,5.000049991798719,-0.09356856922517286,0.08851920938347882,0
1196,0.047840000000000105,5.000049991798719,-0.09389735901632983,0.08886797675854924,0
1197,0.04787999999999992,4.99972120164681,-0.09356856922517286,0.08855922788310142,0
1198,0.04791999999999996,5.000049991798719,-0.09488372838901253,0.08989449031687913,0
1199,0.04796,4.99972120164681,-0.09060946109885244,0.08564038767538848,0
1200,0.04800000000000004,5.000378781950543,-0.08896551213519292,0.08401666376570674,0
1201,0.04804000000000008,5.000378781950543,-0.08962309172105022,0.08469452783950648,0
1202,0.0480799999999999,5.001036362253937,-0.09126704068339796,0.08635881975450188,0
1203,0.04811999999999994,4.998406041038327,-0.08732156316825516,0.08243374268954168,0
1204,0.04815999999999998,5.000049991798719,-0.08896551213519292,0.08409814863912005,0
1205,0.04820000000000002,4.999063621342738,-0.08502003460903816,0.08017318366508563,0
1206,0.04824000000000006,5.000378781950543,-0.09028067130638286,0.08545438752315554,0
1207,0.0482800000000001,5.002351522859708,-0.08534882440360501,0.08054316143094098,0
1208,0.04831999999999992,4.999063621342738,-0.08732156316825516,0.08253657369933778,0
1209,0.04835999999999996,5.001036362253937,-0.08732156316825516,0.08255729894172975,0
1210,0.0484,4.999392411494816,-0.08337608563423975,0.0786325974363346,0
1211,0.04844000000000004,4.999392411494816,-0.08797914275542355,0.0832564804220759,0
1212,0.04848000000000008,4.99972120164681,-0.08074576726775658,0.07604397968674269,0
1213,0.0485199999999999,5.000378781950543,-0.08896551213519292,0.08428464724826273,0
1214,0.04855999999999994,5.002022732708393,-0.08732156316825516,0.08266166797327167,0
1215,0.04859999999999998,5.000378781950543,-0.08304729583888733,0.0784084163919705,0
1216,0.04864000000000002,5.002022732708393,-0.08173213665616903,0.0771143180738441,0
1217,0.04868000000000006,5.001036362253937,-0.08173213665616903,0.07713542311751904,0
1218,0.0487200000000001,5.001365152405508,-0.07680028970234042,0.0722247244511636,0
1219,0.048759999999999915,5.000707572102282,-0.07811544889290346,0.07356107423987487,0
1220,0.048799999999999955,5.000378781950543,-0.07844423869021762,0.07391109601505556,0
1221,0.048839999999999995,4.99972120164681,-0.08008818767482774,0.0755763174284643,0
1222,0.048880000000000035,5.000378781950543,-0.07975939787816717,0.07526883958492336,0
1223,0.048920000000000075,5.000707572102282,-0.07975939787816717,0.07529019013793245,0
1224,0.048960000000000115,5.000049991798719,-0.07745786929788322,0.0730100497882994,0
1225,0.04899999999999993,5.000707572102282,-0.07614271010627514,0.07171631558492432,0
1226,0.04903999999999997,5.000707572102282,-0.07449876111382696,0.0700938274204237,0
1227,0.04908000000000001,5.000049991798719,-0.07416997131494572,0.06978653337353348,0
1228,0.04912000000000005,4.99972120164681,-0.07285481211811588,0.06849290393926748,0
1229,0.04916000000000009,5.000707572102282,-0.07449876111382696,0.07015841579684919,0
1230,0.04919999999999991,5.000049991798719,-0.07121086311914367,0.06689211285428631,0
1231,0.04923999999999995,5.000049991798719,-0.07449876111382696,0.07020163718449594,0
1232,0.04927999999999999,4.99972120164681,-0.07285481211811588,0.06857934490309066,0
1233,0.04932000000000003,4.99972120164681,-0.06825175491278114,0.06399797388843603,0
1234,0.04936000000000007,5.000049991798719,-0.06792296511142272,0.06369089885395239,0
1235,0.04940000000000011,5.001365152405508,-0.07219723251891826,0.06798690870656712,0
1236,0.04943999999999993,5.001365152405508,-0.06923812431607472,0.06504956973137026,0
1237,0.04947999999999997,5.000049991798719,-0.0715396529191989,0.0673728934511888,0
1238,0.04952000000000001,4.99972120164681,-0.06660780590468694,0.062462866551179996,0
1239,0.04956000000000005,5.000707572102282,-0.06825175491278114,0.0641286597825921,0
1240,0.04960000000000009,4.99972120164681,-0.06759417530993413,0.06349294762513245,0
1241,0.049639999999999906,5.000378781950543,-0.06693659570656622,0.06285725780472863,0
1242,0.049679999999999946,5.000378781950543,-0.06562143649826817,0.06156400983473505,0
1243,0.049719999999999986,4.99972120164681,-0.06364869768191721,0.05961320283205289,0
1244,0.049760000000000026,4.99972120164681,-0.059703220035172325,0.05568967669662904,0
1245,0.049800000000000066,4.99972120164681,-0.06167595886088427,0.057684385855870046,0
1246,0.049840000000000106,5.000707572102282,-0.05838806081543309,0.0544184760929833,0
1247,0.049879999999999924,5.000049991798719,-0.06036079964426265,0.0564132202825154,0
1248,0.049919999999999964,5.000049991798719,-0.057401691399265334,0.05347613360774066,0
1249,0.049960000000000004,5.000707572102282,-0.05510016275699865,0.05119664187888124,0
1250,0.050000000000000044,5.000049991798719,-0.05674411178783788,0.0528626423022636,0
1251,0.050040000000000084,4.99972120164681,-0.052469844300912574,0.04861043982525857,0
1252,0.0500799999999999,4.99972120164681,-0.05378500352999273,0.049947676822170904,0
1253,0.05011999999999994,5.000378781950543,-0.05707290159361651,0.0532576645543708,0
1254,0.05015999999999998,5.000378781950543,-0.05510016275699865,0.05130702643220571,0
1255,0.05020000000000002,5.000049991798719,-0.054771372950441696,0.05100034753341493,0
1256,0.05024000000000006,4.99972120164681,-0.05510016275699865,0.05135125759079566,0
1257,0.0502800000000001,4.99972120164681,-0.053456213722917104,0.0497294373026507,0
1258,0.05031999999999992,5.000049991798719,-0.05115468506975916,0.04745004504491176,0
1259,0.05035999999999996,4.999063621342738,-0.050168315645034,0.04648581882177556,0
1260,0.0504,4.99972120164681,-0.048853156410254436,0.04519280875376377,0
1261,0.05044000000000004,5.000049991798719,-0.048853156410254436,0.04521496304704382,0
1262,0.05048000000000008,4.99972120164681,-0.04786678698281073,0.04425075220305386,0
1263,0.0505199999999999,4.99972120164681,-0.04819557679208804,0.044601704051951234,0
1264,0.05055999999999994,5.000378781950543,-0.050168315645034,0.04659660756901068,0
1265,0.05059999999999998,5.000049991798719,-0.04951073602790314,0.04596119441115143,0
1266,0.05064000000000002,4.99972120164681,-0.047537997173404054,0.04401062298408753,0
1267,0.05068000000000006,5.000049991798719,-0.050168315645034,0.04666310902666562,0
1268,0.0507200000000001,5.000049991798719,-0.04786678698281073,0.04438374725659995,0
1269,0.050759999999999916,4.99972120164681,-0.04852436660123595,0.04506349226843894,0
1270,0.050799999999999956,5.000707572102282,-0.047537997173404054,0.04409928591767707,0
1271,0.050839999999999996,5.000049991798719,-0.04392130926139491,0.040504757951150744,0
1272,0.050880000000000036,5.000049991798719,-0.048853156410254436,0.045458761101021886,0
1273,0.050920000000000076,5.000707572102282,-0.04392130926139491,0.04054906519818144,0
1274,0.050960000000000116,4.999392411494816,-0.045565258314247556,0.04221515993390484,0
1275,0.050999999999999934,4.999392411494816,-0.04951073602790314,0.04618277696149574,0
1276,0.051039999999999974,5.000378781950543,-0.048853156410254436,0.04554732948543135,0
1277,0.051080000000000014,4.999392411494816,-0.05049710545340523,0.047213402696774404,0
1278,0.051120000000000054,5.000378781950543,-0.05214105449331856,0.04887946713282428,0
1279,0.051160000000000094,5.000707572102282,-0.04852436660123595,0.045284885068539185,0
1280,0.05119999999999991,4.99972120164681,-0.05444258314375501,0.05122519707661667,0
1281,0.05123999999999995,5.000378781950543,-0.05510016275699865,0.05190486100166575,0
1282,0.05127999999999999,5.000378781950543,-0.05674411178783788,0.05357088240143248,0
1283,0.05132000000000003,4.99972120164681,-0.05805927101017365,0.05490810126308471,0
1284,0.05136000000000007,5.000049991798719,-0.05707290159361651,0.05394377797189445,0
1285,0.05140000000000011,5.000049991798719,-0.05444258314375501,0.05133549135150903,0
1286,0.05143999999999993,4.99972120164681,-0.05542895256342596,0.0523438775252241,0
1287,0.05147999999999997,5.000378781950543,-0.054113793336938706,0.05105071920021074,0
1288,0.05152000000000001,4.99972120164681,-0.05312742391571186,0.050086334053154616,0
1289,0.05156000000000005,4.99972120164681,-0.04852436660123595,0.04550524361322152,0
1290,0.05160000000000009,5.000378781950543,-0.04589404812443025,0.04289687384141682,0
1291,0.05163999999999991,5.000378781950543,-0.0383318824575425,0.03535663794248786,0
1292,0.05167999999999995,5.000049991798719,-0.03274245561641449,0.029789121167192047,0
1293,0.05171999999999999,5.000049991798719,-0.03044092690630805,0.027509482058125374,0
1294,0.05176000000000003,5.000378781950543,-0.025509079649145103,0.022599503176965005,0
1295,0.05180000000000007,5.000378781950543,-0.02090602218305261,0.01801829210401673,0
1296,0.05184000000000011,4.999392411494816,-0.01926207308192608,0.016396166657780924,0
1297,0.051879999999999926,4.99972120164681,-0.01696054433496612,0.014116438074491602,0
1298,0.051919999999999966,5.000378781950543,-0.0113711173519455,0.008548787013385923,0
1299,0.051960000000000006,5.000049991798719,-0.00808321910937683,0.005282639702874219,0
1300,0.052000000000000046,5.000707572102282,-0.004137741201439435,0.0013588869914693408,0
1301,0.052040000000000086,4.99972120164681,-0.0015074225859438989,-0.001249732906246491,0
1302,0.052079999999999904,5.000049991798719,-0.0005210531030302584,-0.0022144308909211458,0
1303,0.052119999999999944,5.000378781950543,0.0021092655236763236,-0.004823105977274568,0
1304,0.052159999999999984,5.000049991798719,0.006712323140007484,-0.009404548747038416,0
1305,0.052200000000000024,5.001036362253937,0.005397163818512657,-0.008067804006214818,0
1306,0.052240000000000064,5.000049991798719,0.007369902801517392,-0.010018987728132436,0
1307,0.052280000000000104,5.000049991798719,0.010986590948902406,-0.013614151501223408,0
1308,0.05231999999999992,5.000049991798719,0.011644170613713423,-0.014250238404630876,0
1309,0.05235999999999996,4.998406041038327,0.009342641789095676,-0.011927249155141338,0
1310,0.0524,4.99972120164681,0.011644170613713423,-0.014207350612602011,0
1311,0.05244000000000004,5.000049991798719,0.012630540111881347,-0.01517232652005017,0
1312,0.05248000000000008,5.000049991798719,0.01328811977796078,-0.0158085470881072,0
1313,0.0525199999999999,4.99972120164681,0.011972960446309217,-0.01447206386492604,0
1314,0.05255999999999994,5.000378781950543,0.010986590948902406,-0.0134644063938111,0
1315,0.05259999999999998,5.000707572102282,0.007041112970698912,-0.009497677068580741,0
1316,0.05264000000000002,5.000049991798719,0.006712323140007484,-0.009147673223932673,0
1317,0.05268000000000006,5.000707572102282,0.005397163818512657,-0.007811337925467551,0
1318,0.0527200000000001,5.000049991798719,0.004082004499051814,-0.006475041367464088,0
1319,0.05275999999999992,5.000049991798719,0.001780475694892425,-0.004152414762154347,0
1320,0.05279999999999996,4.99972120164681,0.0024380553525874815,-0.00478893675257723,0
1321,0.05284,4.999392411494816,-0.0024937920677107622,0.00016392750710972348,0
1322,0.05288000000000004,5.000378781950543,-0.007096849634115457,0.0047879603934969095,0
1323,0.05292000000000008,4.99972120164681,-0.008412008934208556,0.006124052805127886,0
1324,0.052959999999999896,5.000707572102282,-0.012028696998925656,0.009761631086386023,0
1325,0.052999999999999936,5.000707572102282,-0.015316595226152155,0.013070375951092474,0
1326,0.053039999999999976,4.99972120164681,-0.018275703619711994,0.01605028672149669,0
1327,0.053080000000000016,5.000378781950543,-0.018933283261316228,0.016728623800226817,0
1328,0.053120000000000056,5.000707572102282,-0.022549971280973066,0.020366023640701458,0
1329,0.053160000000000096,4.999392411494816,-0.025180289830972882,0.02301700772111646,0
1330,0.053199999999999914,4.99972120164681,-0.030769716722423582,0.028627053180981975,0
1331,0.053239999999999954,5.000049991798719,-0.03274245561641449,0.030620363012288085,0
1332,0.053279999999999994,5.000049991798719,-0.03931825189622702,0.03721668193171709,0
1333,0.053320000000000034,5.000049991798719,-0.04161978058197445,0.039538684295284954,0
1334,0.053360000000000074,5.000049991798719,-0.0445788888829237,0.042518216650664714,0
1335,0.053400000000000114,4.99972120164681,-0.0498395258365333,0.047799227376225925,0
1336,0.05343999999999993,5.000378781950543,-0.05575774236972354,0.05373776674230647,0
1337,0.05347999999999997,5.000378781950543,-0.059703220035172325,0.05770351564750988,0
1338,0.05352000000000001,5.000049991798719,-0.06331990787873677,0.06134042248612854,0
1339,0.05356000000000005,5.000707572102282,-0.06364869768191721,0.061689378390609166,0
1340,0.05360000000000009,5.000707572102282,-0.06890933451510713,0.0669701277848043,0
1341,0.05363999999999991,5.000707572102282,-0.06792296511142272,0.06600381675780309,0
1342,0.05367999999999995,5.000378781950543,-0.07022449371819571,0.06832534891542552,0
1343,0.05371999999999999,5.000378781950543,-0.07186844271912378,0.0699892460023742,0
1344,0.05376000000000003,5.000049991798719,-0.07088207331895803,0.06902276858692312,0
1345,0.05380000000000007,4.99972120164681,-0.07088207331895803,0.06904260383637417,0
1346,0.05384000000000011,5.000378781950543,-0.07088207331895803,0.06906238171912461,0
1347,0.05387999999999993,5.000378781950543,-0.06858054471400928,0.06678057300131067,0
1348,0.05391999999999997,5.000378781950543,-0.07022449371819571,0.06844418327062457,0
1349,0.05396000000000001,5.000049991798719,-0.06660780590468694,0.0648470974763688,0
1350,0.05400000000000005,4.999392411494816,-0.06331990787873677,0.06157874160245575,0
1351,0.05404000000000009,5.000049991798719,-0.059703220035172325,0.05798153542489821,0
1352,0.054079999999999906,5.000378781950543,-0.05674411178783788,0.055041847741254285,0
1353,0.054119999999999946,5.000049991798719,-0.05707290159361651,0.05538999639465017,0
1354,0.054159999999999986,5.000049991798719,-0.05575774236972354,0.054094133691074776,0
1355,0.054200000000000026,5.000378781950543,-0.05049710545340523,0.04885273035907955,0
1356,0.054240000000000066,4.99972120164681,-0.05082589526164695,0.04920069020948768,0
1357,0.054280000000000106,5.000378781950543,-0.045565258314247556,0.04395915915846965,0
1358,0.054319999999999924,5.000049991798719,-0.04161978058197445,0.04003272257569938,0
1359,0.054359999999999964,5.000049991798719,-0.04096220095812057,0.03939411875591217,0
1360,0.054400000000000004,4.99972120164681,-0.04129099077011207,0.03974181843051338,0
1361,0.054440000000000044,4.99972120164681,-0.035372774134525484,0.03384244512259664,0
1362,0.054480000000000084,5.000378781950543,-0.03438640469119987,0.03287485188105699,0
1363,0.0545199999999999,5.000707572102282,-0.03340003524671499,0.03190719092406997,0
1364,0.05455999999999994,5.000049991798719,-0.03372882506167206,0.03225462092637333,0
1365,0.05459999999999998,5.000049991798719,-0.031098506538410467,0.029642873706984575,0
1366,0.05464000000000002,5.000049991798719,-0.027481818555480722,0.026044687563674833,0
1367,0.05468000000000006,4.999063621342738,-0.026495449102891075,0.02507674990821627,0
1368,0.0547200000000001,5.000378781950543,-0.02715302873807933,0.025752690722354567,0
1369,0.05475999999999992,5.000049991798719,-0.029125767640559533,0.02774371961245642,0
1370,0.05479999999999996,5.000378781950543,-0.025837869467188898,0.024474039664777132,0
1371,0.05484,5.000049991798719,-0.024851500012672237,0.023505816105965693,0
1372,0.05488000000000004,4.99972120164681,-0.025837869467188898,0.02451025856069252,0
1373,0.05492000000000008,4.99972120164681,-0.024522710194243194,0.023213098829500553,0
1374,0.0549599999999999,5.000049991798719,-0.02320755091924319,0.021915865077384786,0
1375,0.05499999999999994,5.001365152405508,-0.024193920375685754,0.022920085479978036,0
1376,0.05503999999999998,4.999063621342738,-0.022549971280973066,0.02129391219936811,0
1377,0.05508000000000002,5.000378781950543,-0.024851500012672237,0.023613141060358167,0
1378,0.05512000000000006,5.000378781950543,-0.02320755091924319,0.021986815861195108,0
1379,0.0551600000000001,5.000049991798719,-0.024522710194243194,0.023319522247774706,0
1380,0.055199999999999916,5.000049991798719,-0.023536340738185738,0.02235062257550105,0
1381,0.055239999999999956,5.000049991798719,-0.023536340738185738,0.022368014488932338,0
1382,0.055279999999999996,5.000707572102282,-0.022549971280973066,0.0213989585347949,0
1383,0.055320000000000036,4.998734831190575,-0.024522710194243194,0.023388932003334244,0
1384,0.055360000000000076,5.000378781950543,-0.026824238920549456,0.02570761580220792,0
1385,0.055400000000000116,5.000707572102282,-0.029125767640559533,0.028026219579742426,0
1386,0.055439999999999934,5.000049991798719,-0.030112137090063842,0.0290295835419421,0
1387,0.055479999999999974,5.000049991798719,-0.029125767640559533,0.028060127533073513,0
1388,0.055520000000000014,5.000378781950543,-0.03208487598559902,0.031036067722014456,0
1389,0.055560000000000054,5.000049991798719,-0.030112137090063842,0.029080078551528138,0
1390,0.055600000000000094,5.000707572102282,-0.0340576148765004,0.03304222342459924,0
1391,0.05563999999999991,5.000378781950543,-0.03438640469119987,0.03338759717051426,0
1392,0.05567999999999995,4.999392411494816,-0.03438640469119987,0.033404097431863414,0
1393,0.05571999999999999,5.000378781950543,-0.0340576148765004,0.033091723696756815,0
1394,0.05576000000000003,5.000049991798719,-0.03208487598559902,0.0311353161943599,0
1395,0.05580000000000007,5.000707572102282,-0.026824238920549456,0.025890925319952275,0
1396,0.05584000000000011,4.99972120164681,-0.028796977823800904,0.027879824711767164,0
1397,0.05587999999999993,5.000378781950543,-0.027481818555480722,0.026580739728274363,0
1398,0.05591999999999997,5.000049991798719,-0.025180289830972882,0.02429519858575884,0
1399,0.05596000000000001,5.000049991798719,-0.02090602218305261,0.02003683132045541,0
1400,0.05600000000000005,5.000049991798719,-0.017289334156344746,0.016435955983007226,0
1401,0.05604000000000009,5.000049991798719,-0.010384747880516562,0.0095470942116586,0
1402,0.05607999999999991,4.99972120164681,-0.010384747880516562,0.009562730042493903,0
1403,0.05611999999999995,5.000049991798719,-0.005452900506126915,0.00464642933899008,0
1404,0.05615999999999999,5.000378781950543,-0.003808951374948702,0.003017937235001919,0
1405,0.05620000000000003,4.99972120164681,0.00013652655288240445,-0.0009121737905223026,0
1406,0.05624000000000007,5.000049991798719,0.00013652655288240445,-0.0008968974917270417,0
1407,0.05628000000000011,5.000378781950543,0.004082004499051814,-0.00482719021868222,0
1408,0.056319999999999926,5.000378781950543,0.005725953648695714,-0.006456045702203442,0
