,seconds,Trig,EMG_amplitude,EMG_amplitude_filter,peaks
0,0.0,5.000049991798719,-0.1606416838822417,0.094226174339792,0
1,4.0000000000040004e-05,5.000378781950543,-0.16392958151695192,0.0976533412050893,0
2,8.000000000008001e-05,5.000049991798719,-0.16787505866087404,0.10173803813568671,0
3,0.00011999999999989797,4.99972120164681,-0.17313569482264318,0.1071378441362413,0
4,0.00015999999999993797,5.000378781950543,-0.17642359240624145,0.11056486110720944,0
5,0.00019999999999997797,5.000378781950543,-0.18069785924475862,0.1149781963786119,0
6,0.00024000000000001798,5.000378781950543,-0.18464333630621427,0.1190626904158599,0
7,0.000280000000000058,5.000049991798719,-0.1872736543363711,0.12183197346257235,0
8,0.000320000000000098,4.998734831190575,-0.1908903416136964,0.12558757329554138,0
9,0.00035999999999991594,5.000049991798719,-0.1945070288746319,0.12934312015000654,0
10,0.00039999999999995595,5.000378781950543,-0.19713734687227985,0.13211224427834495,0
11,0.00043999999999999595,5.000049991798719,-0.1997676648612418,0.1348813144349143,0
12,0.00048000000000003595,5.000049991798719,-0.20239798284151073,0.13765033011994898,0
13,0.000520000000000076,5.000049991798719,-0.20338435208186884,0.13877534210296175,0
14,0.0005599999999998939,5.000707572102282,-0.20338435208186884,0.13891392938472905,1
15,0.0005999999999999339,4.998734831190575,-0.20141161359992904,0.1370797222253904,0
16,0.0006399999999999739,5.000378781950543,-0.1958221878745412,0.1316287713656602,0
17,0.0006800000000000139,5.000378781950543,-0.1872736543363711,0.1232186557389329,0
18,0.0007200000000000539,5.000707572102282,-0.1737932743404409,0.10987663620346907,0
19,0.0007600000000000939,5.000707572102282,-0.15538104763880373,0.09160271201507424,0
20,0.0007999999999999119,5.000378781950543,-0.13170818411981328,0.06806809256637228,0
21,0.0008399999999999519,5.000378781950543,-0.10310347311534969,0.03960156669403546,0
22,0.0008799999999999919,4.99972120164681,-0.07219723251891826,0.008833451796887035,0
23,0.0009200000000000319,5.000707572102282,-0.03734551301769716,-0.025880201932046973,0
24,0.0009600000000000719,5.000378781950543,-0.0005210531030302584,-0.062566656495041,0
25,0.001000000000000112,4.99972120164681,0.03433066935967702,-0.09728043451976998,0
26,0.0010399999999999299,4.99972120164681,0.06753844396594139,-0.1303503260942892,0
27,0.0010799999999999699,5.000049991798719,0.09943106037751487,-0.16210512137234362,0
28,0.0011200000000000099,5.000049991798719,0.12967972856027796,-0.192216030811257,0
29,0.0011600000000000499,5.000049991798719,0.1549965494630596,-0.2173951558507481,0
30,0.0012000000000000899,5.000049991798719,0.1757103125528065,-0.2379712864480965,0
31,0.0012399999999999078,5.000378781950543,0.19280738720776225,-0.25493079247131867,0
32,0.0012799999999999478,5.000378781950543,0.20595898331557555,-0.2679448842972717,0
33,0.0013199999999999878,4.999392411494816,0.21253478144070864,-0.27438324297905886,0
34,0.0013600000000000279,5.000378781950543,0.2161514704297157,-0.2778625578513041,0
35,0.0014000000000000679,5.000378781950543,0.21582268052103293,-0.277396459639939,0
36,0.0014400000000001079,5.000378781950543,0.21187720162606338,-0.2733137387432835,0
37,0.0014799999999999258,4.999063621342738,0.20530140350567,-0.2666007654085358,0
38,0.0015199999999999658,5.000378781950543,0.1960952862168741,-0.25725754017846575,0
39,0.0015600000000000058,5.000378781950543,0.18656037912329415,-0.24758559290185028,0
40,0.0016000000000000458,5.000378781950543,0.17472394287104745,-0.2356121847093703,0
41,0.0016400000000000858,5.000378781950543,0.16321629666371967,-0.22396763528857644,0
42,0.0016799999999999038,4.99972120164681,0.15072228094853518,-0.21133678557005567,0
43,0.0017199999999999438,5.000049991798719,0.13855705528841938,-0.19903479559948972,0
44,0.0017599999999999838,5.000378781950543,0.12770698929941152,-0.18804803547506338,0
45,0.0018000000000000238,5.000049991798719,0.1168569234431935,-0.1770613461399895,0
46,0.0018400000000000638,5.000049991798719,0.10666443745724652,-0.1667323078126614,0
47,0.0018800000000001038,5.000378781950543,0.0971295313191825,-0.1570609209509811,0
48,0.0019199999999999218,5.000049991798719,0.08923857459362991,-0.14903355559924053,0
49,0.0019599999999999618,4.99972120164681,0.0813476179392533,-0.14100626289513749,0
50,0.0020000000000000018,5.000049991798719,0.07345666135624548,-0.13297904331726385,0
51,0.0020400000000000418,5.000378781950543,0.06655207440480995,-0.12593826690358412,0
52,0.002080000000000082,5.002022732708393,0.061291436764380286,-0.12054151381065098,0
53,0.0021199999999998997,5.000378781950543,0.056688378855200935,-0.11580241493518209,0
54,0.0021599999999999397,5.000378781950543,0.05175653112254362,-0.11073460119827262,0
55,0.0021999999999999797,5.000707572102282,0.04715347326413659,-0.10599565277282061,0
56,0.0022400000000000198,4.999392411494816,0.04287920527475757,-0.10158557012811599,0
57,0.0022800000000000598,4.99972120164681,0.0392625169926218,-0.09783314357622458,0
58,0.0023200000000000998,5.000378781950543,0.037289777936047624,-0.0957247431086498,0
59,0.0023599999999999177,5.000049991798719,0.03433066935967702,-0.09263005045254938,0
60,0.0023999999999999577,5.000378781950543,0.03268672015498804,-0.09085059497124394,0
61,0.0024399999999999977,4.99972120164681,0.031700350633686175,-0.08972879744760451,0
62,0.0024800000000000377,4.99972120164681,0.031042770953448276,-0.0889358685097925,0
63,0.0025200000000000777,5.000049991798719,0.029398821755059465,-0.08715664926839296,0
64,0.0025599999999998957,5.001365152405508,0.028741242076586612,-0.08636387923058425,0
65,0.0025999999999999357,5.000378781950543,0.027754872559823354,-0.08524239950657915,0
66,0.0026399999999999757,4.99972120164681,0.027097292882612076,-0.08444979024194299,0
67,0.0026800000000000157,4.999063621342738,0.0264397132059056,-0.08365726206465131,0
68,0.0027200000000000557,5.000378781950543,0.025782133529704057,-0.08286481544102296,0
69,0.0027600000000000957,5.000049991798719,0.025782133529704057,-0.08273003051236541,0
70,0.0027999999999999137,5.000049991798719,0.024795764016348754,-0.0816089585540209,0
71,0.0028399999999999537,5.000378781950543,0.023809394504130166,-0.08048796954466492,0
72,0.0028799999999999937,5.000049991798719,0.022494235156274286,-0.07903827411098761,0
73,0.0029200000000000337,5.000378781950543,0.020521496138282788,-0.07693108288123184,0
74,0.0029600000000000737,4.999063621342738,0.019863916466630674,-0.07613913533388698,0
75,0.0029999999999998916,5.000049991798719,0.01756238761983417,-0.07370332340875302,0
76,0.0030399999999999316,5.000049991798719,0.015260858779241576,-0.07126759674772776,0
77,0.0030799999999999716,5.000049991798719,0.012301750279031881,-0.06817437614480171,0
78,0.0031200000000000117,5.000707572102282,0.008356272294735026,-0.06409487223457455,0
79,0.0031600000000000517,5.000049991798719,0.004410794328726292,-0.06001545497774567,0
80,0.0032000000000000917,5.000049991798719,0.0007941062093044515,-0.056264914660188466,0
81,0.0032399999999999096,5.000707572102282,-0.002165002240582567,-0.053172041561672226,0
82,0.0032799999999999496,4.999392411494816,-0.006439269983302923,-0.04876409717589321,0
83,0.0033199999999999896,4.99972120164681,-0.010384747880516562,-0.04468503109649509,0
84,0.0033600000000000296,5.000049991798719,-0.01564538504817102,-0.03929089466206944,0
85,0.0034000000000000696,5.000049991798719,-0.017946913798717698,-0.036855956013935806,0
86,0.0034400000000001096,5.000378781950543,-0.023536340738185738,-0.031133208999064046,0
87,0.0034799999999999276,5.000378781950543,-0.028796977823800904,-0.025739342112451696,0
88,0.0035199999999999676,4.999392411494816,-0.03340003524671499,-0.021003145614390824,0
89,0.0035600000000000076,4.998077250885994,-0.0383318824575425,-0.015938250504927615,0
90,0.0036000000000000476,5.000049991798719,-0.04096220095812057,-0.013174975732098752,0
91,0.0036400000000000876,5.000049991798719,-0.04622283793448369,-0.007781474558953,0
92,0.0036799999999999056,5.000707572102282,-0.05082589526164695,-0.003045645558764267,0
93,0.0037199999999999456,5.000049991798719,-0.05378500352999273,4.61414113588042e-05,0
94,0.0037599999999999856,5.000378781950543,-0.05838806081543309,0.00478178398063896,0
95,0.0038000000000000256,4.99972120164681,-0.06233353846841526,0.008859753053639417,0
96,0.0038400000000000656,5.000707572102282,-0.06463506709067811,0.011293678787024114,0
97,0.0038800000000001056,5.000707572102282,-0.06759417530993413,0.014385089364243299,0
98,0.0039199999999999235,5.000049991798719,-0.06989570391761903,0.01681882513328682,0
99,0.0039599999999999635,5.000378781950543,-0.07416997131494572,0.021225204052741642,0
100,0.0040000000000000036,5.000049991798719,-0.07680028970234042,0.023987537881231577,0
101,0.0040400000000000436,4.99972120164681,-0.0791018182844538,0.02642098538243206,0
102,0.0040800000000000836,5.001036362253937,-0.08271850604340404,0.030169495098316665,0
103,0.0041199999999999015,5.001036362253937,-0.08600640399234578,0.03358911760272964,0
104,0.0041599999999999415,5.001693942556992,-0.08765035296190492,0.035364693287824385,0
105,0.0041999999999999815,5.000378781950543,-0.09060946109885244,0.03845532986274079,0
106,0.0042400000000000215,5.000049991798719,-0.09192462026741856,0.039901918754922834,0
107,0.0042800000000000615,5.000378781950543,-0.09356856922517286,0.04167719828600219,0
108,0.0043200000000001015,5.000049991798719,-0.09521251817964406,0.04345237822842157,0
109,0.0043599999999999195,5.000378781950543,-0.09455493859824966,0.042925929615367855,0
110,0.0043999999999999595,5.000378781950543,-0.09455493859824966,0.043056960130729266,0
111,0.0044399999999999995,4.998734831190575,-0.09356856922517286,0.042201520387525164,0
112,0.0044800000000000395,5.000049991798719,-0.09060946109885244,0.03937324057394505,0
113,0.0045200000000000795,5.000707572102282,-0.0863351937865197,0.03522969982644562,0
114,0.0045599999999998975,5.000049991798719,-0.08140334686016236,0.03042847728711283,0
115,0.0045999999999999375,5.000707572102282,-0.07449876111382696,0.023654413320967592,0
116,0.0046399999999999775,5.000378781950543,-0.06759417530993413,0.016880246262284473,0
117,0.0046800000000000175,5.000707572102282,-0.058716850620562686,0.008133236855879192,0
118,0.0047200000000000575,5.001036362253937,-0.0498395258365333,-0.0006138765338043091,0
119,0.0047600000000000975,4.99972120164681,-0.0389894620834612,-0.01133383320663769,0
120,0.0047999999999999154,4.99972120164681,-0.027481818555480722,-0.022711474393080196,0
121,0.0048399999999999554,5.000049991798719,-0.014330225759327644,-0.03573317001009285,0
122,0.0048799999999999955,4.999063621342738,-0.002165002240582567,-0.047768601934891644,0
123,0.0049200000000000355,5.000707572102282,0.012301750279031881,-0.062105668867646874,0
124,0.0049600000000000755,5.001036362253937,0.02676850304419573,-0.07644284247402447,0
125,0.004999999999999893,5.000707572102282,0.04024888652260587,-0.08979375364179674,0
126,0.005039999999999933,5.000378781950543,0.05570200930641887,-0.1051175113822818,0
127,0.005079999999999973,5.000049991798719,0.06951118309156513,-0.11879742780965445,0
128,0.005120000000000013,5.000049991798719,0.08364914695608275,-0.1328062424192767,0
129,0.005160000000000053,4.99972120164681,0.09943106037751487,-0.14845911510509194,0
130,0.0052000000000000934,5.000378781950543,0.11192507537076382,-0.16082419829747582,0
131,0.005239999999999911,5.000049991798719,0.12409030066589298,-0.17286060114103433,0
132,0.005279999999999951,5.000049991798719,0.13329641721659097,-0.18193800500306484,0
133,0.005319999999999991,4.997748460733576,0.1421737439808442,-0.19068672925422495,0
134,0.005360000000000031,4.999063621342738,0.14809196187283277,-0.19647645522042542,0
135,0.005400000000000071,4.999392411494816,0.1497359112942392,-0.19799202371413555,0
136,0.005440000000000111,5.000378781950543,0.14940712140971585,-0.19753496430984716,0
137,0.005479999999999929,5.000378781950543,0.14776317198891464,-0.19576285718610076,0
138,0.005519999999999969,5.001036362253937,0.14513285292192996,-0.19300449264092548,0
139,0.005560000000000009,4.99972120164681,0.14052979457337558,-0.1882735014459125,0
140,0.005600000000000049,5.000049991798719,0.13625552612816455,-0.1838714131919916,0
141,0.005640000000000089,5.000378781950543,0.13099488806995954,-0.17848306876787845,0
142,0.005679999999999907,5.000049991798719,0.1257342500429348,-0.17309483822183297,0
143,0.005719999999999947,4.99972120164681,0.12014482217344924,-0.16737793208332935,0
144,0.005759999999999987,5.000378781950543,0.11521297408265467,-0.1623187203756607,0
145,0.005800000000000027,4.99972120164681,0.11060991588943969,-0.1575884136188802,0
146,0.005840000000000067,5.000049991798719,0.10469169824778124,-0.1515430628671493,0
147,0.005880000000000107,5.001036362253937,0.10140379957517373,-0.14812814693716309,0
148,0.005919999999999925,5.001693942556992,0.09581437185998914,-0.1424118182155073,0
149,0.005959999999999965,5.000378781950543,0.09154010363123893,-0.13801076562841696,0
150,0.006000000000000005,4.999392411494816,0.08858099486971066,-0.13492498955291016,0
151,0.006040000000000045,5.000049991798719,0.08299156723636938,-0.1292090120451863,0
152,0.006080000000000085,5.000049991798719,0.07904608892849513,-0.1251371016967605,0
153,0.006119999999999903,5.000378781950543,0.07477182078178243,-0.12073651973656004,0
154,0.006159999999999943,4.99972120164681,0.07049755265605667,-0.11633605641663768,0
155,0.006199999999999983,5.001365152405508,0.06655207440480995,-0.11226450198170443,0
156,0.006240000000000023,5.000049991798719,0.0626065961714958,-0.10819306696542072,0
157,0.006280000000000063,5.000049991798719,0.05833232810566989,-0.10379296190653395,0
158,0.006320000000000103,5.000378781950543,0.05471563975876172,-0.10005055674464701,0
159,0.006359999999999921,5.000049991798719,0.05142774127470057,-0.09663706201084113,0
160,0.006399999999999961,5.000049991798719,0.04879742249646346,-0.09388126793422058,0
161,0.006440000000000001,5.000378781950543,0.045838313880531376,-0.09079680535636589,0
162,0.006480000000000041,4.99972120164681,0.04287920527475757,-0.0877124645091991,0
163,0.006520000000000081,4.99972120164681,0.040577676366185214,-0.08528582546279834,0
164,0.006559999999999899,5.000049991798719,0.040577676366185214,-0.08516083781053246,0
165,0.006599999999999939,5.000707572102282,0.03663219825152894,-0.08109049491013084,0
166,0.006639999999999979,5.001693942556992,0.0392625169926218,-0.08359607211191389,0
167,0.006680000000000019,4.99972120164681,0.04090646620989019,-0.08511540341517694,0
168,0.006720000000000059,5.000378781950543,0.040577676366185214,-0.08466211966059094,0
169,0.006760000000000099,4.99972120164681,0.04287920527475757,-0.08683927903817426,0
170,0.006799999999999917,5.001365152405508,0.04123525605372079,-0.08507108504175298,0
171,0.006839999999999957,4.99972120164681,0.04715347326413659,-0.0908651826070432,0
172,0.006879999999999997,5.002022732708393,0.04255041543029908,-0.08613813063193243,0
173,0.006920000000000037,5.002351522859708,0.04452315449893275,-0.08798700143567449,0
174,0.006960000000000077,4.997419670581074,0.045509524034943585,-0.0888496289546377,0
175,0.006999999999999895,5.002680313010939,0.04419436465384674,-0.08741085417472956,0
176,0.007039999999999935,5.001693942556992,0.043865574808886185,-0.08695857591851346,0
177,0.007079999999999975,5.003009103162085,0.04452315449893275,-0.08749279455310373,0
178,0.007120000000000015,5.000707572102282,0.045180734189481195,-0.08802714091115971,0
179,0.007160000000000055,4.99972120164681,0.04222162558596615,-0.08494492706419887,0
180,0.007200000000000095,5.000378781950543,0.04024888652260587,-0.08284921121143773,0
181,0.007239999999999913,4.999392411494816,0.03860493730659416,-0.08108241402398081,0
182,0.007279999999999953,4.999063621342738,0.03663219825152894,-0.07898695617824639,0
183,0.007319999999999993,4.999392411494816,0.034988249042434,-0.07722041772098548,0
184,0.007360000000000033,5.000707572102282,0.033673089677423634,-0.07578279901094374,0
185,0.007400000000000073,5.000378781950543,0.03268672015498804,-0.07467410040614406,0
186,0.007440000000000113,4.99972120164681,0.0323579303144281,-0.07422311210431855,0
187,0.007479999999999931,4.99972120164681,0.0313715607935042,-0.07311467510055455,0
188,0.007519999999999971,4.999392411494816,0.030385191273714543,-0.07200636943257019,0
189,0.007560000000000011,5.000707572102282,0.030713981113518377,-0.07221335481393469,0
190,0.007600000000000051,5.000378781950543,0.030713981113518377,-0.07209168239924804,0
191,0.007640000000000091,4.99972120164681,0.029727611594485073,-0.07098377286216263,0
192,0.007679999999999909,4.999392411494816,0.030385191273714543,-0.07151994527173823,0
193,0.007719999999999949,5.000049991798719,0.029727611594485073,-0.07074109142189584,0
194,0.007759999999999989,5.000049991798719,0.030056401434036775,-0.0709487405393946,0
195,0.007800000000000029,5.000049991798719,0.030056401434036775,-0.07082773361429434,0
196,0.00784000000000007,5.000049991798719,0.030713981113518377,-0.07136444051289213,0
197,0.00788000000000011,4.99972120164681,0.0313715607935042,-0.07190128190234249,0
198,0.007919999999999927,4.99972120164681,0.0323579303144281,-0.07276704796807665,0
199,0.007959999999999967,4.999392411494816,0.030713981113518377,-0.07100263049118317,0
200,0.008000000000000007,4.99972120164681,0.0323579303144281,-0.0725262469380356,0
201,0.008040000000000047,5.000049991798719,0.03202914047399413,-0.07207726020704874,0
202,0.008080000000000087,4.99972120164681,0.0323579303144281,-0.07228598936086711,0
203,0.008119999999999905,5.000707572102282,0.033673089677423634,-0.07348122458046945,0
204,0.008159999999999945,4.99972120164681,0.034988249042434,-0.07467659668344384,0
205,0.008199999999999985,5.000049991798719,0.03597461856751347,-0.07554331616482654,0
206,0.008240000000000025,5.000049991798719,0.03696098809372539,-0.0764101732015073,0
207,0.008280000000000065,5.000049991798719,0.037947357621069405,-0.07727716812815401,0
208,0.008320000000000105,5.000049991798719,0.03959130683582415,-0.07880188096455282,0
209,0.008359999999999923,5.000049991798719,0.039920096679152195,-0.07901157298421048,0
210,0.008399999999999963,4.99972120164681,0.04123525605372079,-0.08020777342097264,0
211,0.008440000000000003,5.000378781950543,0.041564045897676996,-0.08041774354299636,0
212,0.008480000000000043,5.000378781950543,0.04123525605372079,-0.07997027352182073,0
213,0.008520000000000083,4.999392411494816,0.04123525605372079,-0.07985173321697997,0
214,0.008559999999999901,4.998734831190575,0.04024888652260587,-0.07874696357989242,0
215,0.008599999999999941,5.000378781950543,0.04024888652260587,-0.07862870399809871,0
216,0.008639999999999981,4.99972120164681,0.037289777936047624,-0.0755514766780552,0
217,0.008680000000000021,5.000049991798719,0.03597461856751347,-0.07411833974729007,0
218,0.008720000000000061,5.000049991798719,0.03465945920099257,-0.0726853443115521,0
219,0.008760000000000101,5.000049991798719,0.031042770953448276,-0.06895096180837554,0
220,0.008799999999999919,5.000049991798719,0.028741242076586612,-0.06653188080884614,0
221,0.008839999999999959,4.999392411494816,0.024466974178816228,-0.062140203239558565,0
222,0.008879999999999999,5.000378781950543,0.02085028597429857,-0.0584062481316641,0
223,0.008920000000000039,5.000378781950543,0.017233597785083862,-0.054672436123004244,0
224,0.008960000000000079,4.999392411494816,0.01295932994485767,-0.05028118786185484,0
225,0.008999999999999897,5.000378781950543,0.010000221452637598,-0.047205242660620345,0
226,0.009039999999999937,5.000378781950543,0.006054743479005864,-0.04314307200206395,0
227,0.009079999999999977,5.000049991798719,0.0021092655236763236,-0.03908104569687244,0
228,0.009120000000000017,4.99972120164681,0.0004653163810297567,-0.0373206928491889,0
229,0.009160000000000057,4.99972120164681,-0.003808951374948702,-0.03293016634154794,0
230,0.009200000000000097,5.000378781950543,-0.007096849634115457,-0.029526154591427475,0
231,0.009239999999999915,5.000049991798719,-0.00874079875891258,-0.027766237542502167,0
232,0.009279999999999955,5.000049991798719,-0.012357486822223915,-0.024033727426785154,0
233,0.009319999999999995,5.000049991798719,-0.015316595226152155,-0.02095894314584873,0
234,0.009360000000000035,5.000378781950543,-0.01696054433496612,-0.019199464637874933,0
235,0.009400000000000075,5.000707572102282,-0.020248442542986647,-0.015796183809767245,0
236,0.009439999999999893,5.002022732708393,-0.021234812002893247,-0.01469457880884173,0
237,0.009479999999999933,5.000378781950543,-0.022549971280973066,-0.013264331367575918,0
238,0.009519999999999973,5.000378781950543,-0.025180289830972882,-0.010519072329754464,0
239,0.009560000000000013,5.000378781950543,-0.026166659285104213,-0.009417910359461892,0
240,0.009600000000000053,5.000049991798719,-0.028139398189897927,-0.007330527205225673,0
241,0.009640000000000093,5.000378781950543,-0.028796977823800904,-0.006558451882417327,0
242,0.009679999999999911,5.000049991798719,-0.030769716722423582,-0.004471366148002587,0
243,0.009719999999999951,4.99972120164681,-0.03274245561641449,-0.0023844295626647694,0
244,0.009759999999999991,5.000378781950543,-0.03340003524671499,-0.0016128016755478786,0
245,0.009800000000000031,5.000378781950543,-0.03471519450577058,-0.00018374388304287503,0
246,0.009840000000000071,5.000378781950543,-0.0389894620834612,0.004204272217144714,0
247,0.009880000000000111,4.99972120164681,-0.03931825189622702,0.004646660255122614,0
248,0.009919999999999929,5.000049991798719,-0.04161978058197445,0.007061636583719846,0
249,0.009959999999999969,5.000378781950543,-0.0445788888829237,0.010134041661336371,0
250,0.010000000000000009,5.000378781950543,-0.04425009907222392,0.009918397478560312,0
251,0.010040000000000049,5.000378781950543,-0.044907678693494255,0.010688971297710709,0
252,0.010080000000000089,4.99972120164681,-0.04392130926139491,0.009815444353410696,0
253,0.010119999999999907,5.000378781950543,-0.04293493982813261,0.008941765419094722,0
254,0.010159999999999947,4.99972120164681,-0.04194857039370768,0.00806793421725803,0
255,0.010199999999999987,4.99972120164681,-0.0383318824575425,0.004563631971086904,0
256,0.010240000000000027,4.99972120164681,-0.035372774134525484,0.0017167565205046253,0
257,0.010280000000000067,5.000049991798719,-0.029454557457189598,-0.0040893803756484465,0
258,0.010320000000000107,5.001036362253937,-0.0228787611001723,-0.010553250315152932,0
259,0.010359999999999925,5.000049991798719,-0.01630296469182467,-0.01701727394079941,0
260,0.010399999999999965,4.99972120164681,-0.007754429284417372,-0.02545419047018059,0
261,0.010440000000000005,5.000378781950543,0.0004653163810297567,-0.03356247143085973,0
262,0.010480000000000045,4.99972120164681,0.010000221452637598,-0.042986066238258736,0
263,0.010520000000000085,5.000707572102282,0.02085028597429857,-0.05372497520228707,0
264,0.010559999999999903,5.000378781950543,0.03202914047399413,-0.06479282911565765,0
265,0.010599999999999943,4.998406041038327,0.04255041543029908,-0.07520325872038916,0
266,0.010639999999999983,4.998734831190575,0.05372927021222988,-0.08627142364765256,0
267,0.010680000000000023,5.000707572102282,0.06359296572814185,-0.09602458506666645,0
268,0.010720000000000063,5.000049991798719,0.07411424106876553,-0.10643548232773158,0
269,0.010760000000000103,4.99972120164681,0.08233398751715135,-0.11454500697217361,0
270,0.01079999999999992,5.000378781950543,0.08825220500793643,-0.12035315919160827,0
271,0.01083999999999996,5.000707572102282,0.09515679213113215,-0.12714783783172703,0
272,0.01088,5.000378781950543,0.09778711104951865,-0.12966840530968982,0
273,0.01092000000000004,4.99972120164681,0.10008864010957542,-0.1318603402250536,0
274,0.01096000000000008,5.000049991798719,0.10173258944188096,-0.13339485296017053,0
275,0.010999999999999899,4.99972120164681,0.10074621984212842,-0.1322992045612017,0
276,0.011039999999999939,5.000049991798719,0.10008864010957542,-0.13153250407656533,0
277,0.011079999999999979,5.000049991798719,0.09745832118428896,-0.12879322269417992,0
278,0.011120000000000019,5.000049991798719,0.09318405294752126,-0.12441015054183839,0
279,0.011160000000000059,5.000049991798719,0.09088252390559022,-0.12199997637108685,0
280,0.011200000000000099,5.001036362253937,0.08529309625753255,-0.116302062624876,0
281,0.011239999999999917,5.000049991798719,0.08167640779842875,-0.11257704734088443,0
282,0.011279999999999957,5.000378781950543,0.0760869802093063,-0.10687945244142048,0
283,0.011319999999999997,5.000378781950543,0.07016876280110178,-0.1008532274773826,0
284,0.011360000000000037,4.99972120164681,0.06655207440480995,-0.09712869151840699,0
285,0.011400000000000077,4.999392411494816,0.06227780631952985,-0.09274673610091225,0
286,0.011439999999999895,5.000378781950543,0.05866111795613836,-0.08902252087177166,0
287,0.011479999999999935,5.000378781950543,0.05372927021222988,-0.08398330696325111,0
288,0.011519999999999975,4.99972120164681,0.04912621234330475,-0.07927304386419604,0
289,0.011560000000000015,5.000049991798719,0.04353678496405114,-0.07357657242131176,0
290,0.011600000000000055,5.000049991798719,0.04024888652260587,-0.07018179131342275,0
291,0.011640000000000095,5.000049991798719,0.036303408409458296,-0.06612959216037517,0
292,0.011679999999999913,5.000378781950543,0.03268672015498804,-0.06240634472057299,0
293,0.011719999999999953,5.000049991798719,0.030056401434036775,-0.05966962889554838,0
294,0.011759999999999993,5.000049991798719,0.028083662398618273,-0.05759065506267034,0
295,0.011800000000000033,4.997419670581074,0.028412452237539368,-0.0578133726347642,0
296,0.011840000000000073,5.000049991798719,0.024138184341410046,-0.053433195225120314,0
297,0.011880000000000113,5.000049991798719,0.02216544531962629,-0.05135470966447554,0
298,0.01191999999999993,4.99972120164681,0.021836655483104705,-0.050920336483746706,0
299,0.01195999999999997,5.000049991798719,0.021507865646709548,-0.050486126716456164,0
300,0.01200000000000001,5.000049991798719,0.018548757124844717,-0.047421761894322484,0
301,0.01204000000000005,5.000049991798719,0.018877546960101396,-0.04764545927590681,0
302,0.01208000000000009,4.997748460733576,0.01789117745471111,-0.046554161378064673,0
303,0.012119999999999909,5.000378781950543,0.016576018115963126,-0.04513423792136202,0
304,0.012159999999999949,4.99972120164681,0.015260858779241576,-0.043714478953111105,0
305,0.012199999999999989,4.99972120164681,0.01295932994485767,-0.0413085151842013,0
306,0.012240000000000029,5.000049991798719,0.011315380781244458,-0.03956029599229256,0
307,0.012280000000000069,5.000049991798719,0.01032901128459894,-0.03846982158145622,0
308,0.012320000000000109,5.000049991798719,0.008027482463535476,-0.03606435316682699,0
309,0.012359999999999927,5.000049991798719,0.006383533309443135,-0.03431662994495917,0
310,0.012399999999999967,5.001036362253937,0.006712323140007484,-0.034541811437347233,0
311,0.012440000000000007,4.99972120164681,0.004739584158527918,-0.032465630049741886,0
312,0.012480000000000047,4.99972120164681,0.003424424840084442,-0.03104719445831572,0
313,0.012520000000000087,5.000049991798719,0.001780475694892425,-0.02930013537301672,0
314,0.012559999999999905,5.000049991798719,0.001122896037706475,-0.028539612306970857,0
315,0.012599999999999945,4.99972120164681,0.0014516858662357995,-0.028765625454896457,0
316,0.012639999999999985,5.000049991798719,-0.00019226327513760522,-0.027019066556821375,0
317,0.012680000000000025,5.001693942556992,0.0004653163810297567,-0.027574203574470407,0
318,0.012720000000000065,5.000049991798719,-0.00019226327513760522,-0.02681434859088369,0
319,0.012760000000000105,5.000049991798719,-0.0005210531030302584,-0.02638345093821952,0
320,0.012799999999999923,5.000049991798719,0.00013652655288240445,-0.02693909046218937,0
321,0.012839999999999963,4.99972120164681,-0.00019226327513760522,-0.026508528383867067,0
322,0.012880000000000003,5.000707572102282,0.00013652655288240445,-0.026735714030667018,0
323,0.012920000000000043,5.000707572102282,0.0007941062093044515,-0.027291857761021943,0
324,0.012960000000000083,4.99972120164681,0.001780475694892425,-0.02817695976039436,0
325,0.0129999999999999,5.000378781950543,0.0030956350107915753,-0.029391020213255084,0
326,0.01303999999999994,5.000049991798719,0.003424424840084442,-0.02961887998463808,0
327,0.01307999999999998,5.000049991798719,0.004739584158527918,-0.030833278230876657,0
328,0.01312000000000002,4.999392411494816,0.006054743479005864,-0.03204784564405497,0
329,0.01316000000000006,5.000049991798719,0.006054743479005864,-0.0319474230794838,0
330,0.0132000000000001,5.000049991798719,0.007369902801517392,-0.03316232935659759,0
331,0.013239999999999919,5.000378781950543,0.008027482463535476,-0.03371982566745736,0
332,0.013279999999999959,4.999063621342738,0.009342641789095676,-0.034935071509784754,0
333,0.013319999999999999,5.000378781950543,0.009013851957515154,-0.03450653823520222,0
334,0.013360000000000039,5.000049991798719,0.010000221452637598,-0.03539333449847701,0
335,0.013400000000000079,5.000378781950543,0.01032901128459894,-0.03562272147928612,0
336,0.013439999999999896,5.000049991798719,0.011315380781244458,-0.03650985867363274,0
337,0.013479999999999936,5.000707572102282,0.011644170613713423,-0.03673958691943008,0
338,0.013519999999999976,5.000378781950543,0.012630540111881347,-0.037627065711942756,0
339,0.013560000000000016,5.000707572102282,0.014603279111640999,-0.03950108505106692,0
340,0.013600000000000056,4.99972120164681,0.013945699444547363,-0.03874495693097442,0
341,0.013640000000000096,4.99972120164681,0.015260858779241576,-0.039961739181536046,0
342,0.013679999999999914,4.99972120164681,0.016576018115963126,-0.04117869296283305,0
343,0.013719999999999954,4.99972120164681,0.015589648613231935,-0.04009428959183864,0
344,0.013759999999999994,4.999392411494816,0.01789117745471111,-0.04229795640928018,0
345,0.013800000000000034,5.000378781950543,0.016904807950460177,-0.04121389688089183,0
346,0.013840000000000074,4.999063621342738,0.016904807950460177,-0.041116379010938855,0
347,0.013879999999999892,4.999063621342738,0.018548757124844717,-0.04266298262244807,0
348,0.013919999999999932,4.99972120164681,0.019206336795484613,-0.04322338918879194,0
349,0.013959999999999972,5.000049991798719,0.02019270630239349,-0.04411275820009357,0
350,0.014000000000000012,4.99972120164681,0.02019270630239349,-0.04401593046189166,0
351,0.014040000000000052,5.000707572102282,0.019863916466630674,-0.04359048579265526,0
352,0.014080000000000092,5.000378781950543,0.02019270630239349,-0.043822793845601435,0
353,0.01411999999999991,5.000707572102282,0.020521496138282788,-0.04405527509386463,0
354,0.01415999999999995,5.002351522859708,0.020521496138282788,-0.04395913984456705,0
355,0.01419999999999999,5.000049991798719,0.021507865646709548,-0.04484954758376651,0
356,0.01424000000000003,5.000378781950543,0.020521496138282788,-0.04376738992652768,0
357,0.01428000000000007,4.99972120164681,0.02085028597429857,-0.0440005653730942,0
358,0.01432000000000011,4.99972120164681,0.019206336795484613,-0.042261175701743606,0
359,0.014359999999999928,5.000049991798719,0.019863916466630674,-0.04282348891341721,0
360,0.014399999999999968,5.000049991798719,0.020521496138282788,-0.043385976293413994,0
361,0.014440000000000008,5.000378781950543,0.01953512663099438,-0.04230468879564102,0
362,0.014480000000000048,5.000378781950543,0.01953512663099438,-0.04220994523828102,0
363,0.014520000000000088,4.999392411494816,0.018548757124844717,-0.04112900673844952,0
364,0.014559999999999906,5.000378781950543,0.016904807950460177,-0.039390663263214235,0
365,0.014599999999999946,5.000378781950543,0.016904807950460177,-0.03929644378294643,0
366,0.014639999999999986,4.99972120164681,0.016247228281592724,-0.03854481958074421,0
367,0.014680000000000026,4.99972120164681,0.015918438447348998,-0.038122160285046836,0
368,0.014720000000000066,4.999392411494816,0.014932068945377922,-0.0370420965170489,0
369,0.014760000000000106,4.99972120164681,0.013945699444547363,-0.03596220806776121,0
370,0.014799999999999924,5.000049991798719,0.01295932994485767,-0.0348824950579239,0
371,0.014839999999999964,5.000378781950543,0.01295932994485767,-0.03478932710542197,0
372,0.014880000000000004,5.000378781950543,0.01032901128459894,-0.03206601616823933,0
373,0.014920000000000044,5.000378781950543,0.009671431620803153,-0.031315620019625845,0
374,0.014960000000000084,4.999063621342738,0.011972960446309217,-0.03352450826754412,0
375,0.014999999999999902,4.999392411494816,0.01032901128459894,-0.031788094549194956,0
376,0.015039999999999942,5.002680313010939,0.010000221452637598,-0.03136701629385763,0
377,0.015079999999999982,4.999392411494816,0.011315380781244458,-0.032590063443260125,0
378,0.015120000000000022,5.001365152405508,0.009013851957515154,-0.030196598794001175,0
379,0.015160000000000062,5.001693942556992,0.010000221452637598,-0.031091208925365904,0
380,0.015200000000000102,5.000378781950543,0.008356272294735026,-0.029355676972168718,0
381,0.01523999999999992,5.001036362253937,0.008027482463535476,-0.028935481019422837,0
382,0.01527999999999996,5.000049991798719,0.008356272294735026,-0.029173041506703398,0
383,0.01532,5.000378781950543,0.009342641789095676,-0.030068358537245127,0
384,0.01536000000000004,5.001365152405508,0.006712323140007484,-0.027347164405504346,0
385,0.01540000000000008,4.998077250885994,0.007369902801517392,-0.027914045665187806,0
386,0.015439999999999898,5.003337893313145,0.006383533309443135,-0.026837154950366524,0
387,0.015479999999999938,5.000707572102282,0.007369902801517392,-0.027733180495619944,0
388,0.015519999999999978,5.001693942556992,0.007041112970698912,-0.02731422408934689,0
389,0.015560000000000018,5.000378781950543,0.006712323140007484,-0.026895445148600414,0
390,0.015600000000000058,5.000049991798719,0.008027482463535476,-0.028120792920099377,0
391,0.0156400000000001,4.999392411494816,0.0076986926324629085,-0.027702369186243386,0
392,0.015679999999999916,4.999392411494816,0.0076986926324629085,-0.027612913022518323,0
393,0.015719999999999956,5.000049991798719,0.007041112970698912,-0.026866055024493588,0
394,0.015759999999999996,4.99972120164681,0.008027482463535476,-0.027763324095532893,0
395,0.015800000000000036,5.000378781950543,0.007369902801517392,-0.02701682201177362,0
396,0.015840000000000076,5.000378781950543,0.008356272294735026,-0.02791444716749203,0
397,0.015879999999999894,4.99972120164681,0.008356272294735026,-0.02782588099701401,0
398,0.015919999999999934,4.998406041038327,0.009013851957515154,-0.028395072737710053,0
399,0.015959999999999974,5.000378781950543,0.009671431620803153,-0.02896444280727424,0
400,0.016000000000000014,5.000049991798719,0.009342641789095676,-0.02854762178876319,0
401,0.016040000000000054,5.000378781950543,0.01032901128459894,-0.029446138581536885,0
402,0.016080000000000094,5.000707572102282,0.010986590948902406,-0.030016044102932404,0
403,0.016119999999999912,5.000049991798719,0.011644170613713423,-0.030586128258998743,0
404,0.016159999999999952,4.999392411494816,0.011644170613713423,-0.030498811457353142,0
405,0.016199999999999992,4.99972120164681,0.010986590948902406,-0.029754093769525758,0
406,0.016240000000000032,5.000049991798719,0.01065780111668721,-0.029338344763048266,0
407,0.016280000000000072,5.000049991798719,0.011972960446309217,-0.030566723835881673,0
408,0.016320000000000112,5.000049991798719,0.009671431620803153,-0.02817859373837539,0
409,0.01635999999999993,5.000378781950543,0.011644170613713423,-0.030064910509983805,0
410,0.01639999999999997,4.99972120164681,0.01065780111668721,-0.028992297906859754,0
411,0.01644000000000001,4.999063621342738,0.010986590948902406,-0.02923502381128261,0
412,0.01648000000000005,5.000049991798719,0.011315380781244458,-0.029477928955835342,0
413,0.01652000000000009,5.001036362253937,0.010000221452637598,-0.028077064239736077,0
414,0.016559999999999908,4.99972120164681,0.01032901128459894,-0.02832032804339253,0
415,0.016599999999999948,5.000049991798719,0.010000221452637598,-0.02790619159980151,0
416,0.016639999999999988,5.000378781950543,0.01032901128459894,-0.028149814292893496,0
417,0.016680000000000028,5.000378781950543,0.01065780111668721,-0.02839361651355568,0
418,0.016720000000000068,5.000049991798719,0.01065780111668721,-0.028308808482853956,0
419,0.016760000000000108,4.999392411494816,0.01032901128459894,-0.02789539025266788,0
420,0.016799999999999926,4.999392411494816,0.01032901128459894,-0.027810941537652498,0
421,0.016839999999999966,5.000049991798719,0.009342641789095676,-0.026740303059294215,0
422,0.016880000000000006,5.000378781950543,0.010000221452637598,-0.02731379351981937,0
423,0.016920000000000046,5.000049991798719,0.01032901128459894,-0.027558673974880307,0
424,0.016960000000000086,5.000049991798719,0.01065780111668721,-0.02780373430106342,0
425,0.016999999999999904,5.000049991798719,0.010000221452637598,-0.027062605045584,0
426,0.017039999999999944,5.000049991798719,0.009013851957515154,-0.025992865915588886,0
427,0.017079999999999984,5.000378781950543,0.009342641789095676,-0.026238466109537978,0
428,0.017120000000000024,5.002351522859708,0.009013851957515154,-0.025826666676854113,0
429,0.017160000000000064,5.000049991798719,0.008685062126061585,-0.025415047318715286,0
430,0.017200000000000104,5.000049991798719,0.008685062126061585,-0.025332397902941797,0
431,0.017239999999999922,5.000049991798719,0.008356272294735026,-0.024921138801851428,0
432,0.017279999999999962,4.999392411494816,0.008027482463535476,-0.0245100598806003,0
433,0.017320000000000002,5.000049991798719,0.0076986926324629085,-0.02409916117149609,0
434,0.017360000000000042,5.000378781950543,0.006383533309443135,-0.022702073213378,0
435,0.017400000000000082,5.000378781950543,0.006054743479005864,-0.022291535020295628,0
436,0.0174399999999999,5.000707572102282,0.006383533309443135,-0.02253875678866804,0
437,0.01747999999999994,5.000378781950543,0.005725953648695714,-0.02179978939317069,0
438,0.01751999999999998,4.999392411494816,0.006054743479005864,-0.022047371841388858,0
439,0.01756000000000002,5.000049991798719,0.006054743479005864,-0.02196634483590683,0
440,0.01760000000000006,4.99972120164681,0.006054743479005864,-0.021885498229596387,0
441,0.0176400000000001,4.99972120164681,0.005397163818512657,-0.02114725238313632,0
442,0.017679999999999918,4.999392411494816,0.007041112970698912,-0.022710715789482402,0
443,0.017719999999999958,5.000378781950543,0.005397163818512657,-0.02098646134997749,0
444,0.017759999999999998,5.000049991798719,0.006383533309443135,-0.021892706029118192,0
445,0.017800000000000038,4.99972120164681,0.005725953648695714,-0.021155182047730467,0
446,0.017840000000000078,4.99972120164681,0.006383533309443135,-0.021732997893221626,0
447,0.017879999999999896,5.000378781950543,0.004739584158527918,-0.02000946544528355,0
448,0.017919999999999936,4.999392411494816,0.00506837398845672,-0.02025885250788796,0
449,0.017959999999999976,4.99972120164681,0.005397163818512657,-0.02050842011039962,0
450,0.018000000000000016,5.000378781950543,0.004739584158527918,-0.019771798771349935,0
451,0.018040000000000056,4.99972120164681,0.003753214669504526,-0.01870656815905858,0
452,0.018080000000000096,5.000707572102282,0.004410794328726292,-0.019285467256746153,0
453,0.018119999999999914,5.000378781950543,0.00506837398845672,-0.019864546921233017,0
454,0.018159999999999954,5.000378781950543,0.004082004499051814,-0.018799858006052883,0
455,0.018199999999999994,5.000707572102282,0.004410794328726292,-0.01905050898121985,0
456,0.018240000000000034,4.999392411494816,0.00506837398845672,-0.019630130358132478,0
457,0.018280000000000074,5.001365152405508,0.004739584158527918,-0.019223562816121156,0
458,0.018320000000000114,5.000049991798719,0.004082004499051814,-0.018488386012967997,0
459,0.018359999999999932,5.000378781950543,0.0030956350107915753,-0.017424599945731797,0
460,0.018399999999999972,5.000049991798719,0.003424424840084442,-0.017676153755671817,0
461,0.018440000000000012,5.000049991798719,0.003424424840084442,-0.017599098289491688,0
462,0.018480000000000052,4.99972120164681,0.004082004499051814,-0.01817980302762978,0
463,0.018520000000000092,4.99972120164681,0.004410794328726292,-0.018431898472633518,0
464,0.01855999999999991,5.000707572102282,0.004082004499051814,-0.018026594783885103,0
465,0.01859999999999995,5.000049991798719,0.004082004499051814,-0.017950261438477846,0
466,0.01863999999999999,5.000049991798719,0.0030956350107915753,-0.016887739105179544,0
467,0.01868000000000003,5.000378781950543,0.0024380553525874815,-0.016154187087642977,0
468,0.01872000000000007,5.000049991798719,0.003424424840084442,-0.01706476468548443,0
469,0.01876000000000011,5.000378781950543,0.0021092655236763236,-0.01567399393170532,0
470,0.018799999999999928,5.000049991798719,0.0014516858662357995,-0.014940983270423189,0
471,0.018839999999999968,4.999392411494816,0.0014516858662357995,-0.01486573267999422,0
472,0.018880000000000008,4.998406041038327,0.001122896037706475,-0.01446187265297133,0
473,0.018920000000000048,5.000049991798719,0.0004653163810297567,-0.01372940316689969,0
474,0.018960000000000088,5.000049991798719,0.0007941062093044515,-0.013983483510683029,0
475,0.018999999999999906,5.000378781950543,-0.00019226327513760522,-0.0129225848611009,0
476,0.019039999999999946,4.99972120164681,-0.00019226327513760522,-0.012848235988403817,0
477,0.019079999999999986,4.999392411494816,0.00013652655288240445,-0.013102857207906701,0
478,0.019120000000000026,4.999392411494816,-0.0005210531030302584,-0.012371289178040187,0
479,0.019160000000000066,5.000707572102282,-0.00019226327513760522,-0.01262627083557323,0
480,0.019200000000000106,4.998734831190575,-0.0005210531030302584,-0.012223853008595034,0
481,0.019239999999999924,5.000049991798719,-0.001178632758433426,-0.01149282549171042,0
482,0.019279999999999964,4.99972120164681,-0.001178632758433426,-0.011419557732814584,0
483,0.019320000000000004,5.000378781950543,-0.0018362124133269458,-0.010688890385245217,0
484,0.019360000000000044,5.000049991798719,-0.0024937920677107622,-0.00995840306669421,0
485,0.019400000000000084,5.000049991798719,-0.001178632758433426,-0.011200834701257226,0
486,0.019439999999999902,5.001036362253937,-0.0018362124133269458,-0.01047070732070337,0
487,0.019479999999999942,5.000378781950543,-0.001178632758433426,-0.01105591915724987,0
488,0.019519999999999982,5.000049991798719,-0.0018362124133269458,-0.010326151548241395,0
489,0.019560000000000022,5.000049991798719,-0.0028225818947114484,-0.009267773932553514,0
490,0.019600000000000062,4.99972120164681,-0.0024937920677107622,-0.009524735399303999,0
491,0.019640000000000102,5.000049991798719,-0.002165002240582567,-0.009781876593140303,0
492,0.01967999999999992,5.000049991798719,-0.0015074225859438989,-0.010367987293015364,0
493,0.01971999999999996,5.000049991798719,-0.0018362124133269458,-0.00996790813963333,0
494,0.01976,4.999392411494816,-0.0031513717215847087,-0.008581639083045163,0
495,0.01980000000000004,5.000049991798719,-0.0024937920677107622,-0.009168288513830489,0
496,0.01984000000000008,5.000378781950543,-0.00348016154833046,-0.008111168281607857,0
497,0.019879999999999898,5.000049991798719,-0.0024937920677107622,-0.009026966427026446,0
498,0.019919999999999938,4.999392411494816,-0.0024937920677107622,-0.008956574451816968,0
499,0.019959999999999978,5.000378781950543,-0.0024937920677107622,-0.008886361778864212,0
500,0.020000000000000018,5.000378781950543,-0.0018362124133269458,-0.009473908003493917,0
501,0.020040000000000058,4.999392411494816,-0.0024937920677107622,-0.008746474102174981,0
502,0.020080000000000098,4.999063621342738,-0.00348016154833046,-0.00769042949573942,0
503,0.020119999999999916,5.000378781950543,-0.0031513717215847087,-0.007949723254770391,0
504,0.020159999999999956,5.000707572102282,-0.0047953208540382625,-0.006236457048368109,0
505,0.020199999999999996,5.000049991798719,-0.005452900506126915,-0.005509739250446684,0
506,0.020240000000000036,5.000378781950543,-0.005452900506126915,-0.005440779965766279,0
507,0.020280000000000076,5.000378781950543,-0.005124110680146385,-0.005700789299943353,0
508,0.020319999999999894,5.000707572102282,-0.005452900506126915,-0.005303397705450699,0
509,0.020359999999999934,5.000378781950543,-0.005781690331979852,-0.004906184763482764,0
510,0.020399999999999974,5.000049991798719,-0.005781690331979852,-0.004837940227563682,0
511,0.020440000000000014,4.99972120164681,-0.006110480157705198,-0.004441084372608699,0
512,0.020480000000000054,5.000049991798719,-0.006439269983302923,-0.004044406949660774,0
513,0.020520000000000094,5.000049991798719,-0.006768059808773,-0.0036479078826080966,0
514,0.02055999999999991,5.000378781950543,-0.005124110680146385,-0.005224326048007766,0
515,0.02059999999999995,5.000378781950543,-0.006768059808773,-0.0035130241557995295,0
516,0.02063999999999999,5.002022732708393,-0.007096849634115457,-0.0031170596865139136,0
517,0.02068000000000003,5.000378781950543,-0.007096849634115457,-0.003050063080907689,0
518,0.02072000000000007,5.000378781950543,-0.007096849634115457,-0.0029832444310440784,0
519,0.02076000000000011,5.000378781950543,-0.006439269983302923,-0.0035741833038502244,0
520,0.02079999999999993,4.99972120164681,-0.006768059808773,-0.003178930487056489,0
521,0.02083999999999997,5.000049991798719,-0.006768059808773,-0.0031126451959537713,0
522,0.02088000000000001,5.000049991798719,-0.006110480157705198,-0.0037041171683924942,0
523,0.02092000000000005,5.000049991798719,-0.006110480157705198,-0.0036381870132060692,0
524,0.02096000000000009,5.000378781950543,-0.006110480157705198,-0.0035724342911493748,0
525,0.020999999999999908,5.001036362253937,-0.006110480157705198,-0.0035068589106294346,0
526,0.021039999999999948,4.99972120164681,-0.005452900506126915,-0.0040990404303534456,0
527,0.021079999999999988,4.999063621342738,-0.0047953208540382625,-0.004691399105106131,0
528,0.021120000000000028,4.99972120164681,-0.006110480157705198,-0.0033111958831998148,0
529,0.021160000000000068,4.99972120164681,-0.005452900506126915,-0.003903908578941191,0
530,0.021200000000000108,5.000049991798719,-0.004466531027802631,-0.004825587965866379,0
531,0.021239999999999926,5.000378781950543,-0.004466531027802631,-0.004761074639671813,0
532,0.021279999999999966,4.999392411494816,-0.004466531027802631,-0.004696737978181646,0
533,0.021320000000000006,5.000378781950543,-0.003808951374948702,-0.005290157532484872,0
534,0.021360000000000046,5.000378781950543,-0.004137741201439435,-0.00489738406735505,0
535,0.021400000000000086,4.99972120164681,-0.0028225818947114484,-0.006148736091066712,0
536,0.021439999999999904,4.999392411494816,-0.0024937920677107622,-0.0064138948851260175,0
537,0.021479999999999944,4.99972120164681,-0.00348016154833046,-0.005364070514835166,0
538,0.021519999999999984,5.000378781950543,-0.0018362124133269458,-0.00694474079537815,0
539,0.021560000000000024,5.000707572102282,-0.0018362124133269458,-0.006881637866815907,0
540,0.021600000000000064,4.999063621342738,-0.004137741201439435,-0.004517181965476333,0
541,0.021640000000000104,4.99972120164681,-0.004466531027802631,-0.004125640729409373,0
542,0.02167999999999992,5.000378781950543,-0.0028225818947114484,-0.005707014043261745,0
543,0.02171999999999996,5.000049991798719,-0.003808951374948702,-0.004658244219947864,0
544,0.02176,5.001036362253937,-0.005124110680146385,-0.0032808599322907,0
545,0.02180000000000004,4.999392411494816,-0.0047953208540382625,-0.0035476000197713006,0
546,0.02184000000000008,5.000049991798719,-0.003808951374948702,-0.004472094886042027,0
547,0.0218799999999999,4.999063621342738,-0.005781690331979852,-0.0024376563227415313,0
548,0.02191999999999994,4.999392411494816,-0.004466531027802631,-0.0036912909067059116,0
549,0.02195999999999998,5.000707572102282,-0.005781690331979852,-0.002314781646647779,0
550,0.02200000000000002,4.99972120164681,-0.006110480157705198,-0.0019248165064194023,0
551,0.02204000000000006,5.001365152405508,-0.006768059808773,-0.0012062360580451306,0
552,0.0220800000000001,4.99972120164681,-0.006768059808773,-0.0011454096525288435,0
553,0.022119999999999918,4.997748460733576,-0.005781690331979852,-0.002071126988966693,0
554,0.022159999999999958,4.999392411494816,-0.006110480157705198,-0.001681859160197273,0
555,0.022199999999999998,4.99972120164681,-0.006439269983302923,-0.0012927653397985933,0
556,0.022240000000000038,5.000378781950543,-0.007096849634115457,-0.0005750555721440315,0
557,0.022280000000000078,5.000378781950543,-0.006110480157705198,-0.001501468678173093,0
558,0.022319999999999895,5.000049991798719,-0.007425639459330238,-0.00012652661991792435,0
559,0.022359999999999935,5.000049991798719,-0.007425639459330238,-6.691734311972675e-05,0
560,0.022399999999999975,5.000049991798719,-0.006768059808773,-0.0006650610615845168,0
561,0.022440000000000015,5.000378781950543,-0.007096849634115457,-0.00027700851252447645,0
562,0.022480000000000055,5.000049991798719,-0.00808321910937683,0.0007684506156129811,0
563,0.022520000000000095,4.99972120164681,-0.007425639459330238,0.00016978768633452157,0
564,0.022559999999999913,4.999392411494816,-0.007754429284417372,0.0005573214400131712,0
565,0.022599999999999953,5.000378781950543,-0.006768059808773,-0.00037047675808945385,0
566,0.022639999999999993,5.000049991798719,-0.007425639459330238,0.0003455016612797443,0
567,0.022680000000000033,5.001036362253937,-0.00874079875891258,0.0017188873644549546,0
568,0.022720000000000073,4.99972120164681,-0.007754429284417372,0.0007905720730325208,0
569,0.022760000000000113,5.000049991798719,-0.00874079875891258,0.0018348236559652328,0
570,0.02279999999999993,5.000049991798719,-0.009727168232258263,0.002878903310181362,0
571,0.02283999999999997,5.000378781950543,-0.009727168232258263,0.0029364417117339336,0
572,0.02288000000000001,4.999392411494816,-0.010713537704454032,0.003980177955592107,0
573,0.02292000000000005,5.000049991798719,-0.0113711173519455,0.004694952895459556,0
574,0.02296000000000009,4.99972120164681,-0.0116999071754995,0.005080766683880418,0
575,0.02299999999999991,4.999063621342738,-0.012686276645394332,0.006123988944081407,0
576,0.02303999999999995,4.99972120164681,-0.013343856291351444,0.006838250359901023,0
577,0.02307999999999999,4.99972120164681,-0.012357486822223915,0.005908391795475511,0
578,0.02312000000000003,4.99972120164681,-0.014001435936796827,0.007608681106036706,0
579,0.02316000000000007,5.000049991798719,-0.012028696998925656,0.005692111813047997,0
580,0.02320000000000011,4.999063621342738,-0.0116999071754995,0.005419321242164939,0
581,0.023239999999999927,5.000378781950543,-0.010384747880516562,0.004159990967308333,0
582,0.023279999999999967,4.999063621342738,-0.0113711173519455,0.005202019387522981,0
583,0.023320000000000007,5.001036362253937,-0.01301506646843685,0.0069014575436865955,0
584,0.023360000000000047,4.998734831190575,-0.0113711173519455,0.005312827721129697,0
585,0.023400000000000087,4.998734831190575,-0.012357486822223915,0.006354346904126208,0
586,0.023439999999999905,5.001365152405508,-0.009727168232258263,0.003779008611327031,0
587,0.023479999999999945,5.000378781950543,-0.009727168232258263,0.0038338196597473145,0
588,0.023519999999999985,4.999392411494816,-0.004466531027802631,-0.0013721755770907465,0
589,0.023560000000000025,5.004653053916539,-0.006110480157705198,0.0003262466087056194,0
590,0.023600000000000065,5.001693942556992,-0.0005210531030302584,-0.005208876131587482,0
591,0.023640000000000105,4.999063621342738,-0.0031513717215847087,-0.002524421768821155,0
592,0.023679999999999923,5.002680313010939,0.001780475694892425,-0.007402301838786821,0
593,0.023719999999999963,4.999063621342738,0.003424424840084442,-0.008992451861573374,0
594,0.023760000000000003,4.998734831190575,0.003424424840084442,-0.008938820788557279,0
595,0.023800000000000043,4.997419670581074,0.00506837398845672,-0.010529306737466673,0
596,0.023840000000000083,5.003009103162085,0.008356272294735026,-0.013763909540882344,0
597,0.0238799999999999,5.000707572102282,0.008356272294735026,-0.013710781556552925,0
598,0.02391999999999994,5.000378781950543,0.01032901128459894,-0.015630559901442197,0
599,0.02395999999999998,4.99972120164681,0.011315380781244458,-0.016564135912180797,0
600,0.02400000000000002,4.99972120164681,0.012630540111881347,-0.017826668734585598,0
601,0.02404000000000006,5.000049991798719,0.012301750279031881,-0.017445419188682924,0
602,0.0240800000000001,5.000049991798719,0.01295932994485767,-0.018050705753038136,0
603,0.02411999999999992,5.000049991798719,0.01328811977796078,-0.018327368911559547,0
604,0.02415999999999996,4.999392411494816,0.013616909611190692,-0.018604198311308193,0
605,0.0242,4.99972120164681,0.015918438447348998,-0.020853932768205328,0
606,0.02424000000000004,5.000378781950543,0.017233597785083862,-0.02211746359292972,0
607,0.02428000000000008,4.99972120164681,0.01789117745471111,-0.022723580426741545,0
608,0.024319999999999897,5.000049991798719,0.020521496138282788,-0.025302601761553765,0
609,0.024359999999999937,4.999063621342738,0.02117907581044083,-0.025909049380788685,0
610,0.024399999999999977,5.000049991798719,0.022494235156274286,-0.027173241777238014,0
611,0.024440000000000017,5.000378781950543,0.024466974178816228,-0.029095178760562657,0
612,0.024480000000000057,5.000378781950543,0.025453343691792682,-0.030030910950044554,0
613,0.024520000000000097,5.000707572102282,0.0264397132059056,-0.030966807660872557,0
614,0.024559999999999915,5.000707572102282,0.027426082721154613,-0.03190286869646706,0
615,0.024599999999999955,4.99972120164681,0.029070031915759978,-0.03349667353740593,0
616,0.024639999999999995,5.000049991798719,0.029070031915759978,-0.033446693111024814,0
617,0.024680000000000035,5.000049991798719,0.029070031915759978,-0.03339687641216909,0
618,0.024720000000000075,4.99972120164681,0.028741242076586612,-0.03301843340085097,0
619,0.024759999999999893,5.001365152405508,0.028083662398618273,-0.03231136387558292,0
620,0.024799999999999933,4.99972120164681,0.027426082721154613,-0.03160445747275014,0
621,0.024839999999999973,4.99972120164681,0.0264397132059056,-0.030568924150102563,0
622,0.024880000000000013,5.000049991798719,0.025124553854007567,-0.0292047637037739,0
623,0.024920000000000053,5.000049991798719,0.023809394504130166,-0.027840765766391582,0
624,0.024960000000000093,5.000707572102282,0.02216544531962629,-0.026148140294229676,0
625,0.02499999999999991,5.000378781950543,0.02117907581044083,-0.025113256589120656,0
626,0.02503999999999995,5.002022732708393,0.019206336795484613,-0.023092165260832357,0
627,0.02507999999999999,5.000049991798719,0.01756238761983417,-0.021400025444270814,0
628,0.02512000000000003,5.000049991798719,0.014932068945377922,-0.018721677590129486,0
629,0.02516000000000007,5.000378781950543,0.01328811977796078,-0.017029860492036912,0
630,0.02520000000000011,5.000049991798719,0.01328811977796078,-0.016982153597136368,0
631,0.02523999999999993,5.000049991798719,0.010986590948902406,-0.014633078694702296,0
632,0.02527999999999997,5.000049991798719,0.009671431620803153,-0.013270533899489949,0
633,0.02532000000000001,4.99972120164681,0.009342641789095676,-0.01289451899066064,0
634,0.02536000000000005,4.998734831190575,0.008356272294735026,-0.011861084591892114,0
635,0.02540000000000009,5.000378781950543,0.008027482463535476,-0.01148538981071849,0
636,0.025439999999999907,5.000049991798719,0.006712323140007484,-0.010123485272370307,0
637,0.025479999999999947,4.99972120164681,0.005397163818512657,-0.008761740250932591,0
638,0.025519999999999987,4.999392411494816,0.005725953648695714,-0.00904410367477993,0
639,0.025560000000000027,5.000378781950543,0.004739584158527918,-0.008011466849623075,0
640,0.025600000000000067,5.000707572102282,0.004082004499051814,-0.007307778703256803,0
641,0.025640000000000107,5.000707572102282,0.003424424840084442,-0.006604249181266293,0
642,0.025679999999999925,5.000378781950543,0.0024380553525874815,-0.005572088229400439,0
643,0.025719999999999965,4.99972120164681,0.0014516858662357995,-0.004540085451143573,0
644,0.025760000000000005,5.000049991798719,0.001122896037706475,-0.004165820276007679,0
645,0.025800000000000045,5.000049991798719,-0.0015074225859438989,-0.0014901840229129097,0
646,0.025840000000000085,5.000049991798719,-0.001178632758433426,-0.0017738137090365855,0
647,0.025879999999999903,5.000049991798719,-0.00348016154833046,0.0005727179642590931,0
648,0.025919999999999943,5.000049991798719,-0.005124110680146385,0.0022615129525166387,0
649,0.025959999999999983,4.99972120164681,-0.005124110680146385,0.0023062020139907775,0
650,0.026000000000000023,4.999063621342738,-0.006768059808773,0.003994683642068803,0
651,0.026040000000000063,4.99972120164681,-0.007754429284417372,0.005025429289038572,0
652,0.026080000000000103,5.000378781950543,-0.007425639459330238,0.004740859541996226,0
653,0.02611999999999992,4.99972120164681,-0.00808321910937683,0.005442503412597836,0
654,0.02615999999999996,5.000378781950543,-0.007425639459330238,0.004828832362349492,0
655,0.0262,5.000707572102282,-0.00808321910937683,0.005530165229109405,0
656,0.02624000000000004,4.99972120164681,-0.007754429284417372,0.0052449734763857815,0
657,0.02628000000000008,4.99972120164681,-0.007096849634115457,0.004630836993381966,0
658,0.0263199999999999,4.99972120164681,-0.007425639459330238,0.005002915321425917,0
659,0.02635999999999994,5.000378781950543,-0.0090695885834889,0.006689998525339368,0
660,0.02639999999999998,5.000049991798719,-0.0090695885834889,0.006732978424336768,0
661,0.02644000000000002,4.99972120164681,-0.008412008934208556,0.006118224736532507,0
662,0.02648000000000006,5.000378781950543,-0.00808321910937683,0.005832107179807401,0
663,0.0265200000000001,4.999392411494816,-0.008412008934208556,0.006203415824440558,0
664,0.026559999999999917,5.000049991798719,-0.00874079875891258,0.00657457126661418,0
665,0.026599999999999957,4.99972120164681,-0.007096849634115457,0.004972834803833891,0
666,0.026639999999999997,5.000049991798719,-0.0090695885834889,0.006987633707552787,0
667,0.026680000000000037,5.000707572102282,-0.007754429284417372,0.005714381903835667,0
668,0.026720000000000077,5.000049991798719,-0.007096849634115457,0.005098557539472994,0
669,0.026759999999999895,5.000378781950543,-0.005124110680146385,0.0031674219124960025,0
670,0.026799999999999935,5.001036362253937,-0.006768059808773,0.0048528226605242565,0
671,0.026839999999999975,5.002022732708393,-0.005781690331979852,0.003907753347784343,0
672,0.026880000000000015,5.000378781950543,-0.005124110680146385,0.003291322657779594,0
673,0.026920000000000055,5.000378781950543,-0.0047953208540382625,0.0030035308452780584,0
674,0.026960000000000095,4.99972120164681,-0.003808951374948702,0.002058008686450369,0
675,0.026999999999999913,4.99972120164681,-0.003808951374948702,0.0020987055691165622,0
676,0.027039999999999953,4.999392411494816,-0.0028225818947114484,0.0011528827905670606,0
677,0.027079999999999993,5.000378781950543,-0.0015074225859438989,-0.00012187974000923453,0
678,0.027120000000000033,5.001693942556992,-0.0024937920677107622,0.0009047368547955726,0
679,0.027160000000000073,4.99972120164681,-0.0015074225859438989,-4.1534919885691246e-05,0
680,0.027200000000000113,4.999392411494816,-0.0024937920677107622,0.0009847831230696755,0
681,0.02723999999999993,5.000378781950543,-0.0018362124133269458,0.0003670031448833235,0
682,0.02727999999999997,4.99972120164681,-0.0031513717215847087,0.0017218135061008739,0
683,0.02732000000000001,5.000378781950543,-0.00348016154833046,0.0020901060251659193,0
684,0.02736000000000005,5.000378781950543,-0.0031513717215847087,0.001800670793536423,0
685,0.02740000000000009,5.000049991798719,-0.004137741201439435,0.0028262470355785684,0
686,0.02743999999999991,5.000049991798719,-0.005124110680146385,0.0038516757086515304,0
687,0.02747999999999995,5.000378781950543,-0.006439269983302923,0.005205746904289809,0
688,0.02751999999999999,5.000378781950543,-0.007096849634115457,0.005902091412463105,0
689,0.02756000000000003,4.99972120164681,-0.007096849634115457,0.005940709502288803,0
690,0.02760000000000007,5.000049991798719,-0.00939837840793746,0.008280709866806402,0
691,0.02764000000000011,4.99972120164681,-0.010384747880516562,0.009305404700171466,0
692,0.027679999999999927,5.000049991798719,-0.011042327528263687,0.010001163748827332,0
693,0.027719999999999967,4.999392411494816,-0.012028696998925656,0.011025566931361565,0
694,0.027760000000000007,5.000378781950543,-0.013672646114138112,0.012707404341055308,0
695,0.027800000000000047,4.99972120164681,-0.014659015581730453,0.013731516958184628,0
696,0.027840000000000087,5.000049991798719,-0.014659015581730453,0.013769115236021555,0
697,0.027879999999999905,4.99972120164681,-0.015316595226152155,0.014464148560618357,0
698,0.027919999999999945,5.000707572102282,-0.014659015581730453,0.013843878273538487,0
699,0.027959999999999985,5.000049991798719,-0.01630296469182467,0.015524992693756543,0
700,0.028000000000000025,5.002351522859708,-0.015316595226152155,0.014575644767388232,0
701,0.028040000000000065,4.99972120164681,-0.014330225759327644,0.01362615334622609,0
702,0.028080000000000105,4.99972120164681,-0.013672646114138112,0.013005308531010661,0
703,0.028119999999999923,5.000049991798719,-0.012028696998925656,0.011397951308809745,0
704,0.028159999999999963,5.000378781950543,-0.010713537704454032,0.010119241249881204,0
705,0.028200000000000003,5.000378781950543,-0.008412008934208556,0.007854019337969215,0
706,0.028240000000000043,5.000049991798719,-0.008412008934208556,0.007890184100113036,0
707,0.028280000000000083,5.001693942556992,-0.00808321910937683,0.0075974172230128065,0
708,0.0283199999999999,5.000378781950543,-0.005781690331979852,0.005331769861466076,0
709,0.02835999999999994,5.000049991798719,-0.005452900506126915,0.005038720202863231,0
710,0.02839999999999998,5.000378781950543,-0.007096849634115457,0.006718268533529154,0
711,0.02844000000000002,5.000049991798719,-0.005452900506126915,0.005109777928415358,0
712,0.02848000000000006,5.000378781950543,-0.005124110680146385,0.004816306231015949,0
713,0.0285200000000001,5.001036362253937,-0.006439269983302923,0.006166643554704218,0
714,0.02855999999999992,4.99972120164681,-0.006110480157705198,0.005872891928564572,0
715,0.02859999999999996,4.998406041038327,-0.007096849634115457,0.006894160071062768,0
716,0.02864,5.000378781950543,-0.007425639459330238,0.007257709317422895,0
717,0.02868000000000004,5.000378781950543,-0.007425639459330238,0.007292329782773518,0
718,0.02872000000000008,4.99972120164681,-0.007754429284417372,0.007655601407280997,0
719,0.028759999999999897,4.99972120164681,-0.007096849634115457,0.007032365181046413,0
720,0.028799999999999937,4.99972120164681,-0.006110480157705198,0.006080201044636799,0
721,0.028839999999999977,5.000378781950543,-0.007096849634115457,0.007100638068972677,0
722,0.028880000000000017,5.000707572102282,-0.005781690331979852,0.005819408815380886,0
723,0.028920000000000057,4.99972120164681,-0.006110480157705198,0.006181991483659255,0
724,0.028960000000000097,5.000378781950543,-0.005124110680146385,0.005229277936747726,0
725,0.028999999999999915,4.999392411494816,-0.005124110680146385,0.005262797250264564,0
726,0.029039999999999955,5.000378781950543,-0.0047953208540382625,0.0049673904160045905,0
727,0.029079999999999995,5.000378781950543,-0.003808951374948702,0.004014267903238917,0
728,0.029120000000000035,5.000049991798719,-0.0031513717215847087,0.003389799487497839,0
729,0.029160000000000075,5.000378781950543,-0.00348016154833046,0.0037515651206638852,0
730,0.029200000000000115,5.001036362253937,-0.0018362124133269458,0.0021404566590476504,0
731,0.029239999999999933,4.999392411494816,-0.0018362124133269458,0.002173162498238939,0
732,0.029279999999999973,4.99972120164681,-0.0005210531030302584,0.0008905744924381882,0
733,0.029320000000000013,5.000378781950543,0.0004653163810297567,-6.335792166083272e-05,0
734,0.029360000000000053,5.000049991798719,0.001122896037706475,-0.0006886344420951422,0
735,0.029400000000000093,5.000378781950543,0.0014516858662357995,-0.0009852547666321914,0
736,0.02943999999999991,4.99972120164681,0.001780475694892425,-0.0012820084214299685,0
737,0.02947999999999995,4.999063621342738,0.0014516858662357995,-0.0009213154462868085,0
738,0.02951999999999999,5.000049991798719,0.0014516858662357995,-0.0008895450237709126,0
739,0.02956000000000003,5.000378781950543,0.0024380553525874815,-0.0018442765075389455,0
740,0.02960000000000007,4.99972120164681,0.0021092655236763236,-0.0014839807913051475,0
741,0.02964000000000011,4.999392411494816,0.0027668451816259126,-0.002110186371892883,0
742,0.02967999999999993,4.99972120164681,0.0007941062093044515,-0.00010620482624501895,0
743,0.02971999999999997,5.000049991798719,0.0007941062093044515,-7.509345040748218e-05,0
744,0.02976000000000001,5.000049991798719,0.00013652655288240445,0.000613466691527188,0
745,0.02980000000000005,4.99972120164681,-0.0005210531030302584,0.0013018962504050147,0
746,0.02984000000000009,5.000049991798719,-0.00019226327513760522,0.0010038260513171148,0
747,0.029879999999999907,4.99972120164681,-0.00019226327513760522,0.0010344157149542125,0
748,0.029919999999999947,5.000049991798719,-0.0018362124133269458,0.0027088248612075656,0
749,0.029959999999999987,5.000378781950543,-0.001178632758433426,0.002081575868997463,0
750,0.030000000000000027,4.99972120164681,-0.0028225818947114484,0.0037557266333647973,0
751,0.030040000000000067,5.000707572102282,-0.001178632758433426,0.0021418504019585713,0
752,0.030080000000000107,4.999392411494816,-0.0015074225859438989,0.002500584723086074,0
753,0.030119999999999925,4.998734831190575,-0.003808951374948702,0.0048319299069981315,0
754,0.030159999999999965,4.999392411494816,-0.004466531027802631,0.0055191981691728636,0
755,0.030200000000000005,5.001365152405508,-0.0047953208540382625,0.0058775491328405425,0
756,0.030240000000000045,4.99972120164681,-0.005781690331979852,0.006893352590593565,0
757,0.030280000000000085,5.000378781950543,-0.003808951374948702,0.0049499207705878834,0
758,0.030319999999999903,5.000707572102282,-0.005124110680146385,0.006294260685422281,0
759,0.030359999999999943,4.998406041038327,-0.00348016154833046,0.004679365951810156,0
760,0.030399999999999983,4.99972120164681,-0.004137741201439435,0.00536587410820054,0
761,0.030440000000000023,4.99972120164681,-0.005781690331979852,0.007038626164161244,0
762,0.030480000000000063,4.99972120164681,-0.0047953208540382625,0.006080934351386878,0
763,0.030520000000000103,4.999392411494816,-0.005124110680146385,0.006438276900560046,0
764,0.03055999999999992,5.000378781950543,-0.0047953208540382625,0.006137915174104553,0
765,0.03059999999999996,5.000707572102282,-0.0031513717215847087,0.004522269837115862,0
766,0.03064,4.99972120164681,-0.00348016154833046,0.004879239474894279,0
767,0.03068000000000004,4.99972120164681,-0.0031513717215847087,0.004578505795031497,0
768,0.03072000000000008,4.99972120164681,-0.00348016154833046,0.0049352284253159455,0
769,0.0307599999999999,5.000049991798719,-0.002165002240582567,0.0036478788990868607,0
770,0.03079999999999994,5.000049991798719,-0.0018362124133269458,0.003346776153169499,0
771,0.03083999999999998,4.99972120164681,-0.0018362124133269458,0.003374340856677505,0
772,0.03088000000000002,5.000378781950543,-0.002165002240582567,0.0037305733324681373,0
773,0.03092000000000006,5.000378781950543,-0.0015074225859438989,0.0031003145947516905,0
774,0.0309600000000001,4.999392411494816,-0.0015074225859438989,0.003127514103920233,0
775,0.030999999999999917,4.99972120164681,-0.0018362124133269458,0.003483382357072188,0
776,0.031039999999999957,4.99972120164681,-0.0031513717215847087,0.004825499332544194,0
777,0.031079999999999997,4.99972120164681,-0.0028225818947114484,0.004523546739662361,0
778,0.031120000000000037,5.000378781950543,-0.0047953208540382625,0.006523002825572487,0
779,0.031160000000000077,5.000049991798719,-0.006439269983302923,0.008193549300305867,0
780,0.031199999999999894,5.000049991798719,-0.00874079875891258,0.010521555967037976,0
781,0.031239999999999934,4.997419670581074,-0.00939837840793746,0.011205494380078163,0
782,0.031279999999999974,5.000378781950543,-0.010713537704454032,0.012546893641208798,0
783,0.031320000000000014,5.000707572102282,-0.012686276645394332,0.01454575407553058,0
784,0.031360000000000054,4.99972120164681,-0.01301506646843685,0.014900547249349378,0
785,0.031400000000000095,5.000049991798719,-0.014330225759327644,0.016241592077493306,0
786,0.03143999999999991,5.000378781950543,-0.014001435936796827,0.015938570308225142,0
787,0.03147999999999995,5.000049991798719,-0.015316595226152155,0.017279380496831916,0
788,0.03151999999999999,4.998734831190575,-0.01564538504817102,0.01763370439451285,0
789,0.03156000000000003,5.001036362253937,-0.015316595226152155,0.017330332155426977,0
790,0.03160000000000007,5.000707572102282,-0.014659015581730453,0.016698053932503933,0
791,0.03164000000000011,4.999063621342738,-0.014659015581730453,0.016723239524293387,0
792,0.03167999999999993,5.000707572102282,-0.014001435936796827,0.016090729973591473,0
793,0.03171999999999997,5.000378781950543,-0.012686276645394332,0.014800525611436645,0
794,0.03176000000000001,5.000049991798719,-0.013672646114138112,0.015811735177435917,0
795,0.03180000000000005,5.000707572102282,-0.012028696998925656,0.014192511660892757,0
796,0.03184000000000009,5.002680313010939,-0.014987805404005308,0.017176231499871488,0
797,0.03187999999999991,4.998406041038327,-0.012028696998925656,0.014241620698142643,0
798,0.03191999999999995,5.001036362253937,-0.014987805404005308,0.01722511321064863,0
799,0.03195999999999999,5.001365152405508,-0.011042327528263687,0.013303906281430494,0
800,0.03200000000000003,4.997419670581074,-0.012686276645394332,0.014972013519597087,0
801,0.03204000000000007,4.999063621342738,-0.011042327528263687,0.013352110033819817,0
802,0.03208000000000011,5.000378781950543,-0.0113711173519455,0.01370483333536291,0
803,0.032119999999999926,4.997419670581074,-0.009727168232258263,0.012084705876616766,0
804,0.032159999999999966,5.000049991798719,-0.00874079875891258,0.011122046584241247,0
805,0.032200000000000006,5.000049991798719,-0.00874079875891258,0.011145645622562948,0
806,0.032240000000000046,5.000049991798719,-0.0090695885834889,0.011497923680504082,0
807,0.032280000000000086,5.000378781950543,-0.009727168232258263,0.01217888109573797,0
808,0.032319999999999904,4.99972120164681,-0.0090695885834889,0.011544569084950374,0
809,0.032359999999999944,5.000378781950543,-0.008412008934208556,0.01091014728394337,0
810,0.032399999999999984,4.999392411494816,-0.009727168232258263,0.012248354979685091,0
811,0.032440000000000024,4.99972120164681,-0.00874079875891258,0.011284924792925845,0
812,0.032480000000000064,5.000378781950543,-0.007096849634115457,0.009663806183429859,0
813,0.032520000000000104,5.000049991798719,-0.008412008934208556,0.011001687567699505,0
814,0.03255999999999992,5.000707572102282,-0.007425639459330238,0.010037932086370199,0
815,0.03259999999999996,4.999392411494816,-0.006439269983302923,0.009074068854093606,0
816,0.03264,5.000049991798719,-0.006439269983302923,0.009096467689203375,0
817,0.03268000000000004,5.000049991798719,-0.006768059808773,0.009447549282623584,0
818,0.03272000000000008,5.001036362253937,-0.006110480157705198,0.008812154674147431,0
819,0.0327599999999999,5.000049991798719,-0.005452900506126915,0.008176653681919232,0
820,0.03279999999999994,5.000707572102282,-0.005781690331979852,0.00852741612630925,0
821,0.03283999999999998,5.000049991798719,-0.003808951374948702,0.006576544089738252,0
822,0.03288000000000002,4.99972120164681,-0.0031513717215847087,0.0059407260017969275,0
823,0.03292000000000006,4.999392411494816,-0.002165002240582567,0.004976013074518646,0
824,0.0329600000000001,5.000049991798719,-0.0005210531030302584,0.0033536158226251597,0
825,0.03299999999999992,4.999063621342738,0.001122896037706475,0.0017311142434069601,0
826,0.03303999999999996,5.000378781950543,0.00013652655288240445,0.0027388273098209043,0
827,0.03308,4.99972120164681,0.003424424840084442,-0.0005278310312255841,0
828,0.03312000000000004,5.000049991798719,0.0024380553525874815,0.0004796751117655054,0
829,0.03316000000000008,5.000049991798719,0.004082004499051814,-0.0011432403248187416,0
830,0.033199999999999896,4.99972120164681,0.004410794328726292,-0.0014510990449094485,0
831,0.033239999999999936,4.99972120164681,0.003753214669504526,-0.0007726905308162481,0
832,0.033279999999999976,4.998734831190575,0.003424424840084442,-0.0004231737553909848,0
833,0.033320000000000016,4.998406041038327,0.003424424840084442,-0.0004025483721479921,0
834,0.033360000000000056,4.99972120164681,0.0014516858662357995,0.0015907147685394335,0
835,0.033400000000000096,5.000378781950543,0.0004653163810297567,0.0025975075507878517,0
836,0.033439999999999914,5.000707572102282,-0.001178632758433426,0.004261779464350444,0
837,0.033479999999999954,4.999392411494816,-0.0028225818947114484,0.005925951198879904,0
838,0.033519999999999994,5.000049991798719,-0.00348016154833046,0.006603653622234796,0
839,0.033560000000000034,5.000049991798719,-0.0047953208540382625,0.007938836216728636,0
840,0.033600000000000074,4.999392411494816,-0.006110480157705198,0.009273919676026605,0
841,0.033640000000000114,5.000707572102282,-0.007425639459330238,0.010608904348147551,0
842,0.03367999999999993,5.000378781950543,-0.009727168232258263,0.01293016005467714,0
843,0.03371999999999997,5.000378781950543,-0.010055958056451306,0.013278578724034998,0
844,0.03376000000000001,4.99972120164681,-0.010384747880516562,0.013626899653498593,0
845,0.03380000000000005,5.000378781950543,-0.012686276645394332,0.015947862132887045,0
846,0.03384000000000009,4.99972120164681,-0.012028696998925656,0.015309619159124627,0
847,0.03387999999999991,5.001693942556992,-0.012357486822223915,0.015657648962608177,0
848,0.03391999999999995,5.000049991798719,-0.01301506646843685,0.01633437224596504,0
849,0.03395999999999999,4.99972120164681,-0.013343856291351444,0.016682209712653783,0
850,0.03400000000000003,5.000049991798719,-0.014330225759327644,0.0176875311808938,0
851,0.03404000000000007,4.99972120164681,-0.013343856291351444,0.016720018419714263,0
852,0.03408000000000011,4.99972120164681,-0.014001435936796827,0.017396359828711926,0
853,0.03411999999999993,4.99972120164681,-0.01564538504817102,0.01905897611079223,0
854,0.03415999999999997,4.99972120164681,-0.014659015581730453,0.01809117957278112,0
855,0.03420000000000001,5.000378781950543,-0.014659015581730453,0.0181096586096706,0
856,0.03424000000000005,4.99972120164681,-0.0166317545134594,0.02010078303764875,0
857,0.03428000000000009,4.99972120164681,-0.01630296469182467,0.019790285522681573,0
858,0.034319999999999906,5.000049991798719,-0.017946913798717698,0.021452434097873903,0
859,0.034359999999999946,4.99972120164681,-0.017946913798717698,0.02147054107916902,0
860,0.034399999999999986,5.000049991798719,-0.019590862902407788,0.023132505028660565,0
861,0.034440000000000026,5.000049991798719,-0.0228787611001723,0.02643832628838573,0
862,0.034480000000000066,5.001365152405508,-0.023536340738185738,0.027113737556310073,0
863,0.034520000000000106,5.000049991798719,-0.024522710194243194,0.028117847562153818,0
864,0.034559999999999924,4.999392411494816,-0.026824238920549456,0.030437026110176874,0
865,0.034599999999999964,4.99972120164681,-0.028139398189897927,0.031769744825353614,0
866,0.034640000000000004,5.000378781950543,-0.028139398189897927,0.03178721424759607,0
867,0.034680000000000044,5.000049991798719,-0.026824238920549456,0.030489434729324458,0
868,0.034720000000000084,5.000378781950543,-0.026166659285104213,0.029849145526324065,0
869,0.0347599999999999,5.001036362253937,-0.024851500012672237,0.02855118772034775,0
870,0.03479999999999994,5.000049991798719,-0.021234812002893247,0.024951612563783233,0
871,0.03483999999999998,4.99972120164681,-0.018275703619711994,0.02200952877342435,0
872,0.03488000000000002,5.000378781950543,-0.014987805404005308,0.018738567243093925,0
873,0.03492000000000006,5.001036362253937,-0.010384747880516562,0.014152358850574136,0
874,0.0349600000000001,5.000049991798719,-0.006439269983302923,0.010223642883049645,0
875,0.03499999999999992,5.000378781950543,-0.0024937920677107622,0.0062948400490789105,0
876,0.03503999999999996,4.99972120164681,0.0021092655236763236,0.0017083710445381234,0
877,0.03508,4.999392411494816,0.006383533309443135,-0.0025493942957885846,0
878,0.03512000000000004,5.000378781950543,0.010000221452637598,-0.006149665781507926,0
879,0.03516000000000008,5.000378781950543,0.01328811977796078,-0.009421232883811546,0
880,0.0351999999999999,5.000049991798719,0.016904807950460177,-0.013021674914173421,0
881,0.03523999999999994,5.000049991798719,0.02019270630239349,-0.016293411851217847,0
882,0.03527999999999998,5.000049991798719,0.02216544531962629,-0.01825007382712108,0
883,0.03532000000000002,4.999063621342738,0.024138184341410046,-0.020206819827393682,0
884,0.03536000000000006,4.998077250885994,0.025124553854007567,-0.02117727998451003,0
885,0.0354000000000001,4.99972120164681,0.025453343691792682,-0.021490243779012146,0
886,0.035439999999999916,4.99972120164681,0.02676850304419573,-0.022789660046459256,0
887,0.035479999999999956,4.99972120164681,0.02676850304419573,-0.022773999565924234,0
888,0.035519999999999996,5.000049991798719,0.026110923367741706,-0.022100841659418877,0
889,0.035560000000000036,4.999392411494816,0.026110923367741706,-0.0220853453258871,0
890,0.035600000000000076,5.000378781950543,0.026110923367741706,-0.022069930534887934,0
891,0.035639999999999894,5.000707572102282,0.025782133529704057,-0.021725807094377957,0
892,0.035679999999999934,5.000049991798719,0.024466974178816228,-0.02039539497552422,0
893,0.035719999999999974,4.99972120164681,0.024795764016348754,-0.02070901252556627,0
894,0.035760000000000014,5.000378781950543,0.024466974178816228,-0.020365130526981252,0
895,0.035800000000000054,4.99972120164681,0.022494235156274286,-0.018377379115784943,0
896,0.035840000000000094,5.000049991798719,0.022494235156274286,-0.018362446145490444,0
897,0.03587999999999991,4.99972120164681,0.02117907581044083,-0.017032432893689914,0
898,0.03591999999999995,4.99972120164681,0.02085028597429857,-0.01668886786188542,0
899,0.03595999999999999,5.000378781950543,0.01953512663099438,-0.01535901167921535,0
900,0.03600000000000003,4.99972120164681,0.018548757124844717,-0.014358023336005894,0
901,0.03604000000000007,5.000707572102282,0.018548757124844717,-0.014343482147284141,0
902,0.03608000000000011,4.99972120164681,0.018877546960101396,-0.014657808088215492,0
903,0.03611999999999993,5.000049991798719,0.018877546960101396,-0.014643421134375341,0
904,0.03615999999999997,5.000378781950543,0.01789117745471111,-0.01364274126175321,0
905,0.03620000000000001,5.000378781950543,0.018877546960101396,-0.014614876632681476,0
906,0.03624000000000005,4.999392411494816,0.018548757124844717,-0.014271928541936492,0
907,0.03628000000000009,5.000049991798719,0.01756238761983417,-0.013271476306661763,0
908,0.03631999999999991,4.999392411494816,0.018877546960101396,-0.014572628088189946,0
909,0.03635999999999995,5.000378781950543,0.01789117745471111,-0.013572325841941422,0
910,0.03639999999999999,5.000049991798719,0.01789117745471111,-0.013558467565378547,0
911,0.03644000000000003,5.000049991798719,0.01821996728971463,-0.01387347323459201,0
912,0.03648000000000007,5.000049991798719,0.017233597785083862,-0.012873393321488472,0
913,0.03652000000000011,4.99972120164681,0.01789117745471111,-0.013517335986575778,0
914,0.036559999999999926,4.99972120164681,0.018548757124844717,-0.014161351702792938,0
915,0.036599999999999966,5.000049991798719,0.01789117745471111,-0.013490280776136218,0
916,0.036640000000000006,5.000378781950543,0.018877546960101396,-0.014463231369249624,0
917,0.036680000000000046,5.000378781950543,0.018877546960101396,-0.014449884448159062,0
918,0.036720000000000086,4.99972120164681,0.01821996728971463,-0.013779029494899238,0
919,0.036759999999999904,4.99972120164681,0.018877546960101396,-0.014423405167756809,0
920,0.036799999999999944,5.000707572102282,0.01789117745471111,-0.013423902597406633,0
921,0.036839999999999984,5.001036362253937,0.018877546960101396,-0.014397209617734816,0
922,0.036880000000000024,5.001036362253937,0.01756238761983417,-0.013069058019738955,0
923,0.036920000000000064,5.000049991798719,0.01756238761983417,-0.013056135636890537,0
924,0.036960000000000104,5.000378781950543,0.01756238761983417,-0.013043282776584085,0
925,0.03699999999999992,5.000049991798719,0.01756238761983417,-0.013030499086600283,0
926,0.03703999999999996,5.000378781950543,0.017233597785083862,-0.012688994380092335,0
927,0.03708,5.000049991798719,0.016904807950460177,-0.01234755813996747,0
928,0.03712000000000004,4.99972120164681,0.016904807950460177,-0.012334979848883765,0
929,0.03716000000000008,5.000049991798719,0.016904807950460177,-0.012322469320513209,0
930,0.0371999999999999,5.000049991798719,0.015918438447348998,-0.01132365670017891,0
931,0.03723999999999994,5.000378781950543,0.016904807950460177,-0.012297650145791192,0
932,0.03727999999999998,5.000378781950543,0.016247228281592724,-0.011627761127872227,0
933,0.03732000000000002,4.999392411494816,0.015260858779241576,-0.010629148633790428,0
934,0.03736000000000006,5.000378781950543,0.015589648613231935,-0.010945761482398744,0
935,0.0374000000000001,5.001036362253937,0.016576018115963126,-0.011920019655282506,0
936,0.03743999999999992,4.99972120164681,0.015589648613231935,-0.010921604127586769,0
937,0.03747999999999996,4.99972120164681,0.015589648613231935,-0.010909623057019549,0
938,0.03752,5.000049991798719,0.016576018115963126,-0.011884076093265444,0
939,0.03756000000000004,5.000378781950543,0.016247228281592724,-0.011543434046350276,0
940,0.03760000000000008,5.000049991798719,0.016904807950460177,-0.012189225406650142,0
941,0.037639999999999896,5.000049991798719,0.016576018115963126,-0.011848710817781313,0
942,0.037679999999999936,4.99972120164681,0.017233597785083862,-0.012494628937130624,0
943,0.037719999999999976,5.002022732708393,0.01821996728971463,-0.013469399747184682,0
944,0.037760000000000016,5.000049991798719,0.01821996728971463,-0.013457863558590792,0
945,0.037800000000000056,4.99972120164681,0.018548757124844717,-0.013775179362095581,0
946,0.037840000000000096,5.000049991798719,0.018877546960101396,-0.014092556973882828,0
947,0.037879999999999914,4.99972120164681,0.02085028597429857,-0.01605394522415917,0
948,0.037919999999999954,5.000049991798719,0.021507865646709548,-0.016700235243800043,0
949,0.037959999999999994,5.000049991798719,0.02216544531962629,-0.017346586026912768,0
950,0.038000000000000034,4.99972120164681,0.022823024993048696,-0.017992997225529835,0
951,0.038040000000000074,5.000707572102282,0.025453343691792682,-0.020612207516720764,0
952,0.038080000000000114,5.000049991798719,0.0264397132059056,-0.02158752834301151,0
953,0.03811999999999993,4.99972120164681,0.027426082721154613,-0.022562908542876688,0
954,0.03815999999999997,4.99972120164681,0.029727611594485073,-0.02485350712620176,0
955,0.03820000000000001,5.000378781950543,0.030713981113518377,-0.025829005033784845,0
956,0.03824000000000005,5.000049991798719,0.0323579303144281,-0.027462140955216575,0
957,0.03828000000000009,4.99972120164681,0.033673089677423634,-0.028766545024367707,0
958,0.03831999999999991,5.001365152405508,0.033673089677423634,-0.028755847370066305,0
959,0.03835999999999995,5.000378781950543,0.03433066935967702,-0.029402786691722582,0
960,0.03839999999999999,5.000049991798719,0.034988249042434,-0.030049782962003765,0
961,0.03844000000000003,5.000378781950543,0.034988249042434,-0.030039256152325902,0
962,0.03848000000000007,4.99972120164681,0.0353170388840013,-0.030357575441953326,0
963,0.03852000000000011,4.99972120164681,0.03400187951848738,-0.029032001437444825,0
964,0.03855999999999993,5.000049991798719,0.033673089677423634,-0.0286928525258101,0
965,0.03859999999999997,5.002351522859708,0.033015509995673945,-0.02802496899766589,0
966,0.03864000000000001,5.000049991798719,0.0313715607935042,-0.026370770829309297,0
967,0.03868000000000005,5.000049991798719,0.031042770953448276,-0.02603178655958742,0
968,0.03872000000000009,5.000378781950543,0.029727611594485073,-0.024706486964078178,0
969,0.038759999999999906,5.000378781950543,0.027097292882612076,-0.022066081865667525,0
970,0.038799999999999946,5.000378781950543,0.0264397132059056,-0.02139846930961352,0
971,0.038839999999999986,5.000049991798719,0.025453343691792682,-0.02040212008082177,0
972,0.038880000000000026,5.000049991798719,0.023480604666976643,-0.01841945416377505,0
973,0.038920000000000066,5.000049991798719,0.021836655483104705,-0.01676563056820453,0
974,0.038960000000000106,4.99972120164681,0.018548757124844717,-0.013467909937170217,0
975,0.038999999999999924,5.000049991798719,0.017233597785083862,-0.012142980122263426,0
976,0.039039999999999964,5.000378781950543,0.015260858779241576,-0.01016052209792339,0
977,0.039080000000000004,5.000378781950543,0.012630540111881347,-0.007520535528052784,0
978,0.039120000000000044,4.99972120164681,0.012301750279031881,-0.007182128568342633,0
979,0.039160000000000084,4.99972120164681,0.01032901128459894,-0.005199822882687805,0
980,0.0391999999999999,5.000378781950543,0.010000221452637598,-0.004861516455462938,0
981,0.03923999999999994,5.000378781950543,0.010986590948902406,-0.005838419113076296,0
982,0.03927999999999998,5.000049991798719,0.009342641789095676,-0.004185052532221813,0
983,0.03932000000000002,4.999392411494816,0.01032901128459894,-0.005162053685614242,0
984,0.03936000000000006,5.000049991798719,0.011315380781244458,-0.00613910358076427,0
985,0.0394000000000001,5.000049991798719,0.010000221452637598,-0.004814673053304609,0
986,0.03943999999999992,5.000707572102282,0.01032901128459894,-0.00513423975143568,0
987,0.03947999999999996,5.001036362253937,0.01065780111668721,-0.005453854177452193,0
988,0.03952,4.999063621342738,0.010000221452637598,-0.0047871464981851485,0
989,0.03956000000000004,5.000049991798719,0.01065780111668721,-0.005435645201330913,0
990,0.03960000000000008,5.000049991798719,0.009671431620803153,-0.004440241462682959,0
991,0.0396399999999999,5.000378781950543,0.009342641789095676,-0.00410246377054866,0
992,0.03967999999999994,5.000378781950543,0.008685062126061585,-0.003435942293996297,0
993,0.03971999999999998,5.000049991798719,0.007369902801517392,-0.002111886867791818,0
994,0.03976000000000002,5.001693942556992,0.0076986926324629085,-0.002431825974265993,0
995,0.03980000000000006,4.99972120164681,0.007041112970698912,-0.0017654406309357204,0
996,0.0398400000000001,4.99972120164681,0.006054743479005864,-0.0007703101666862583,0
997,0.039879999999999916,4.999063621342738,0.007041112970698912,-0.001747963061329759,0
998,0.039919999999999956,5.001036362253937,0.006383533309443135,-0.001081710845424095,0
999,0.039959999999999996,4.999392411494816,0.0076986926324629085,-0.002388241323485779,0
1000,0.040000000000000036,5.000049991798719,0.007369902801517392,-0.002050866024969053,0
1001,0.040040000000000076,4.999063621342738,0.011972960446309217,-0.006645381247678085,0
1002,0.040080000000000116,4.9967620902758165,0.012630540111881347,-0.007294461205167357,0
1003,0.040119999999999933,5.000707572102282,0.016576018115963126,-0.01123148188409128,0
1004,0.040159999999999973,5.001693942556992,0.015589648613231935,-0.010236697108469375,0
1005,0.040200000000000014,4.999063621342738,0.018877546960101396,-0.013516221904477994,0
1006,0.040240000000000054,4.999063621342738,0.018877546960101396,-0.01350788974583391,0
1007,0.040280000000000094,4.999063621342738,0.020521496138282788,-0.015143547828202535,0
1008,0.04031999999999991,4.9954469296642845,0.02085028597429857,-0.015464087302282499,0
1009,0.04035999999999995,5.000378781950543,0.018877546960101396,-0.013483138331506564,0
1010,0.04039999999999999,5.003995473615012,0.021836655483104705,-0.016434076975206206,0
1011,0.04044000000000003,4.998077250885994,0.02085028597429857,-0.015439577336730959,0
1012,0.04048000000000007,5.000049991798719,0.021836655483104705,-0.016417856138306867,0
1013,0.04052000000000011,5.002022732708393,0.021507865646709548,-0.016081014690372993,0
1014,0.04055999999999993,5.000049991798719,0.022494235156274286,-0.017059371357794943,0
1015,0.04059999999999997,5.000049991798719,0.02117907581044083,-0.01573623761337422,0
1016,0.04064000000000001,5.000707572102282,0.021836655483104705,-0.016385881005624485,0
1017,0.04068000000000005,5.000378781950543,0.022823024993048696,-0.01736435202840858,0
1018,0.04072000000000009,5.000049991798719,0.02315181482994949,-0.01768528084694858,0
1019,0.04075999999999991,5.000049991798719,0.023480604666976643,-0.018006246810428138,0
1020,0.04079999999999995,4.99972120164681,0.024466974178816228,-0.018984829270019515,0
1021,0.04083999999999999,4.99972120164681,0.02315181482994949,-0.01766191936716563,0
1022,0.04088000000000003,5.000049991798719,0.023480604666976643,-0.01798299482590726,0
1023,0.04092000000000007,5.000378781950543,0.02315181482994949,-0.017646526464219096,0
1024,0.04096000000000011,4.999063621342738,0.022823024993048696,-0.01731009363469039,0
1025,0.040999999999999925,5.000049991798719,0.02315181482994949,-0.01763127568989399,0
1026,0.041039999999999965,5.000378781950543,0.022823024993048696,-0.017294912961616712,0
1027,0.041080000000000005,5.000707572102282,0.02315181482994949,-0.017616164477347464,0
1028,0.041120000000000045,5.000049991798719,0.021507865646709548,-0.01596471122352877,0
1029,0.041160000000000085,5.000707572102282,0.022823024993048696,-0.01727240043076783,0
1030,0.0411999999999999,4.99972120164681,0.02216544531962629,-0.016607384231117163,0
1031,0.04123999999999994,4.999063621342738,0.02085028597429857,-0.015284821654335312,0
1032,0.04127999999999998,4.99972120164681,0.02085028597429857,-0.015277451400070106,0
1033,0.04132000000000002,5.000049991798719,0.02085028597429857,-0.015270113805924392,0
1034,0.04136000000000006,5.000378781950543,0.01953512663099438,-0.013947649212043639,0
1035,0.0414000000000001,5.000378781950543,0.02085028597429857,-0.015255535332312505,0
1036,0.04143999999999992,5.000049991798719,0.02019270630239349,-0.014590714149411245,0
1037,0.04147999999999996,5.000049991798719,0.02019270630239349,-0.014583504035481108,0
1038,0.04152,4.99972120164681,0.019863916466630674,-0.014247535168413511,0
1039,0.04156000000000004,5.001365152405508,0.02085028597429857,-0.01522675641349687,0
1040,0.04160000000000008,5.000378781950543,0.02019270630239349,-0.01456205893436125,0
1041,0.0416399999999999,5.000049991798719,0.019863916466630674,-0.014226181433897776,0
1042,0.04167999999999994,5.000378781950543,0.018877546960101396,-0.013232754092918984,0
1043,0.04171999999999998,5.000049991798719,0.019206336795484613,-0.013554515612373717,0
1044,0.04176000000000002,5.000378781950543,0.01756238761983417,-0.01190356732813759,0
1045,0.04180000000000006,5.000049991798719,0.01756238761983417,-0.011896597116271487,0
1046,0.0418400000000001,5.000378781950543,0.016904807950460177,-0.011232075821686054,0
1047,0.04187999999999992,5.000707572102282,0.014932068945377922,-0.009252423468543575,0
1048,0.04191999999999996,5.000049991798719,0.014932068945377922,-0.00924553808869575,0
1049,0.04196,5.000378781950543,0.013616909611190692,-0.007923521034502133,0
1050,0.04200000000000004,5.000049991798719,0.012630540111881347,-0.006930321167227894,0
1051,0.04204000000000008,5.000378781950543,0.01295932994485767,-0.007252307677055023,0
1052,0.042079999999999895,4.999392411494816,0.011972960446309217,-0.00625916159352459,0
1053,0.042119999999999935,4.999392411494816,0.010986590948902406,-0.005266041943234968,0
1054,0.042159999999999975,5.000378781950543,0.011315380781244458,-0.005588107749308898,0
1055,0.042200000000000015,5.000049991798719,0.010000221452637598,-0.00426625021615085,0
1056,0.042240000000000055,5.000049991798719,0.009671431620803153,-0.003930787697174139,0
1057,0.042280000000000095,5.000378781950543,0.010986590948902406,-0.005239299551824884,0
1058,0.04231999999999991,5.000049991798719,0.01032901128459894,-0.004575097324647458,0
1059,0.04235999999999995,5.000378781950543,0.012301750279031881,-0.006541238364260793,0
1060,0.04239999999999999,5.000378781950543,0.013616909611190692,-0.007849824047736285,0
1061,0.04244000000000003,5.001036362253937,0.014274489278030808,-0.008500854070716546,0
1062,0.04248000000000007,5.000049991798719,0.016576018115963126,-0.010795856968907919,0
1063,0.04252000000000011,5.000378781950543,0.01789117745471111,-0.01210451377194064,0
1064,0.04255999999999993,5.000707572102282,0.02019270630239349,-0.014399563188454527,0
1065,0.04259999999999997,5.000378781950543,0.02216544531962629,-0.016365845580203923,0
1066,0.04264000000000001,4.99972120164681,0.021836655483104705,-0.016030621625642623,0
1067,0.04268000000000005,5.000049991798719,0.025124553854007567,-0.01931210808833144,0
1068,0.04272000000000009,4.997748460733576,0.027097292882612076,-0.021278457121555988,0
1069,0.04275999999999991,5.000378781950543,0.028083662398618273,-0.02225845825865412,0
1070,0.04279999999999995,4.99972120164681,0.030385191273714543,-0.024553640075584346,0
1071,0.04283999999999999,5.000707572102282,0.033015509995673945,-0.027177632765025043,0
1072,0.04288000000000003,5.000378781950543,0.034988249042434,-0.029144066510457103,0
1073,0.04292000000000007,4.99972120164681,0.03663219825152894,-0.030781730855599064,0
1074,0.04296000000000011,5.000049991798719,0.037947357621069405,-0.0320906255053897,0
1075,0.04299999999999993,4.997748460733576,0.039920096679152195,-0.03405711969540064,0
1076,0.04303999999999997,5.000049991798719,0.04090646620989019,-0.035037263917869176,0
1077,0.04308000000000001,5.000378781950543,0.04123525605372079,-0.03535984772200946,0
1078,0.04312000000000005,5.000378781950543,0.04222162558596615,-0.036340030192575666,0
1079,0.04316000000000009,5.000049991798719,0.04353678496405114,-0.03764902119708281,0
1080,0.043199999999999905,5.000049991798719,0.043865574808886185,-0.037971661067192436,0
1081,0.043239999999999945,5.000049991798719,0.04419436465384674,-0.038294319047695,0
1082,0.043279999999999985,5.000049991798719,0.044851944344144246,-0.038945784695883646,0
1083,0.043320000000000025,5.000378781950543,0.04715347326413659,-0.04124121710886738,0
1084,0.043360000000000065,5.000378781950543,0.048139842803156765,-0.042221507389402495,0
1085,0.043400000000000105,5.000707572102282,0.04879742249646346,-0.042873024786845834,0
1086,0.04343999999999992,5.000049991798719,0.048139842803156765,-0.04220939947507337,0
1087,0.04347999999999996,5.000049991798719,0.04945500219027131,-0.04351852963657612,0
1088,0.04352,5.000378781950543,0.04879742249646346,-0.042854936826149874,0
1089,0.04356000000000004,5.000049991798719,0.04715347326413659,-0.041204990303023194,0
1090,0.04360000000000008,5.001365152405508,0.045180734189481195,-0.039226269480900376,0
1091,0.0436399999999999,5.000049991798719,0.044851944344144246,-0.038891513149633454,0
1092,0.04367999999999994,5.000707572102282,0.041564045897676996,-0.03559766319767255,0
1093,0.04371999999999998,5.000049991798719,0.03827614746376892,-0.032303827958302424,0
1094,0.04376000000000002,5.000049991798719,0.03597461856751347,-0.02999637667691083,0
1095,0.04380000000000006,5.000378781950543,0.033015509995673945,-0.027031359861257237,0
1096,0.0438400000000001,4.999392411494816,0.029727611594485073,-0.023737567079277003,0
1097,0.04387999999999992,4.999063621342738,0.0264397132059056,-0.020443787895336685,0
1098,0.04391999999999996,5.000049991798719,0.021836655483104705,-0.015834862685723032,0
1099,0.04396,4.99972120164681,0.02019270630239349,-0.01418505905057713,0
1100,0.04400000000000004,4.999392411494816,0.014932068945377922,-0.00891857999604996,0
1101,0.04404000000000008,5.000049991798719,0.011315380781244458,-0.005296062616590616,0
1102,0.0440799999999999,5.000378781950543,0.005725953648695714,0.0002991815231154493,0
1103,0.04411999999999994,4.99972120164681,0.0021092655236763236,0.003921674720417963,0
1104,0.04415999999999998,4.999392411494816,-0.0018362124133269458,0.007872946067399123,0
1105,0.04420000000000002,4.999063621342738,-0.003808951374948702,0.00985146704853456,0
1106,0.04424000000000006,4.99972120164681,-0.006768059808773,0.012816346382518853,0
1107,0.0442800000000001,5.000049991798719,-0.008412008934208556,0.014466055559138217,0
1108,0.044319999999999915,4.99972120164681,-0.007754429284417372,0.013814225381196593,0
1109,0.044359999999999955,5.000049991798719,-0.00939837840793746,0.015463913666135838,0
1110,0.044399999999999995,5.000049991798719,-0.00808321910937683,0.014154483486727217,0
1111,0.044440000000000035,4.99972120164681,-0.006768059808773,0.012845043530428406,0
1112,0.044480000000000075,5.001036362253937,-0.006768059808773,0.012850753366561028,0
1113,0.044520000000000115,5.000707572102282,-0.0047953208540382625,0.010883715005713068,0
1114,0.04455999999999993,5.001036362253937,-0.002165002240582567,0.008259088009074338,0
1115,0.04459999999999997,5.000049991798719,-0.0005210531030302584,0.006620821775692263,0
1116,0.04464000000000001,5.000378781950543,0.0021092655236763236,0.003996177604176865,0
1117,0.04468000000000005,5.000049991798719,0.005397163818512657,0.0007139455784625388,0
1118,0.04472000000000009,4.99972120164681,0.007369902801517392,-0.0012531350593397196,0
1119,0.04475999999999991,5.000378781950543,0.01032901128459894,-0.0042065928597513,0
1120,0.04479999999999995,5.000049991798719,0.01295932994485767,-0.006831268239250558,0
1121,0.04483999999999999,4.99972120164681,0.016576018115963126,-0.010442320271652407,0
1122,0.04488000000000003,5.000049991798719,0.016904807950460177,-0.010765480850416814,0
1123,0.04492000000000007,5.000049991798719,0.019863916466630674,-0.013718966735512816,0
1124,0.04496000000000011,5.000378781950543,0.022494235156274286,-0.01634366916120178,0
1125,0.04499999999999993,5.000049991798719,0.024466974178816228,-0.018310798030147443,0
1126,0.04503999999999997,4.99972120164681,0.025453343691792682,-0.019291563243903666,0
1127,0.04508000000000001,4.999063621342738,0.02676850304419573,-0.020601123896261668,0
1128,0.04512000000000005,4.999392411494816,0.027754872559823354,-0.02158190005660239,0
1129,0.04516000000000009,4.999063621342738,0.028083662398618273,-0.02190510163123756,0
1130,0.04519999999999991,4.99972120164681,0.028083662398618273,-0.021899518205362366,0
1131,0.04523999999999995,5.000049991798719,0.025453343691792682,-0.01926362065889422,0
1132,0.04527999999999999,5.000049991798719,0.025453343691792682,-0.019258046154225293,0
1133,0.04532000000000003,5.000049991798719,0.023809394504130166,-0.01760852654640363,0
1134,0.04536000000000007,5.000049991798719,0.024138184341410046,-0.01793174979836759,0
1135,0.04540000000000011,5.000049991798719,0.021836655483104705,-0.015624657940722493,0
1136,0.045439999999999925,5.000707572102282,0.01953512663099438,-0.013317569427183235,0
1137,0.045479999999999965,5.000049991798719,0.02019270630239349,-0.013969592527802808,0
1138,0.045520000000000005,4.99972120164681,0.02117907581044083,-0.014950408309264702,0
1139,0.045560000000000045,5.000378781950543,0.024138184341410046,-0.01790396571219554,0
1140,0.045600000000000085,4.99972120164681,0.028741242076586612,-0.022501474673044287,0
1141,0.0456399999999999,4.99972120164681,0.03465945920099257,-0.028414145132809085,0
1142,0.04567999999999994,4.999392411494816,0.04090646620989019,-0.03465560734354307,0
1143,0.04571999999999998,4.99972120164681,0.048139842803156765,-0.041883440762731206,0
1144,0.04576000000000002,4.99972120164681,0.05635958900548195,-0.050097645173489774,0
1145,0.04580000000000006,5.000378781950543,0.06556570484479929,-0.05929822036300017,0
1146,0.0458400000000001,5.000049991798719,0.07247029178839723,-0.06619726755862186,0
1147,0.04587999999999992,4.99972120164681,0.07805971935431567,-0.07178115603929096,0
1148,0.04591999999999996,5.000049991798719,0.08463551653658133,-0.07835141456075753,0
1149,0.04596,4.997748460733576,0.08923857459362991,-0.0829489341440098,0
1150,0.04600000000000004,5.000049991798719,0.09088252390559022,-0.08458734493256051,0
1151,0.04604000000000008,4.99972120164681,0.09318405294752126,-0.08688333516568604,0
1152,0.0460799999999999,5.000378781950543,0.09515679213113215,-0.08885053502014845,0
1153,0.04611999999999994,4.99972120164681,0.09614316172460258,-0.0898313645300179,0
1154,0.04615999999999998,4.99972120164681,0.09614316172460258,-0.08982582345869429,0
1155,0.04620000000000002,5.000707572102282,0.09515679213113215,-0.08883391157374898,0
1156,0.04624000000000006,4.999392411494816,0.09614316172460258,-0.08981473742400797,0
1157,0.0462800000000001,4.99972120164681,0.095485581995499,-0.08915161226921636,0
1158,0.04631999999999992,5.000378781950543,0.09351284281114798,-0.0871733257468078,0
1159,0.04635999999999996,5.000049991798719,0.09318405294752126,-0.0868389864037102,0
1160,0.0464,4.99972120164681,0.09088252390559022,-0.08453190551270202,0
1161,0.04644000000000004,5.000378781950543,0.08890978473160849,-0.08255361189269679,0
1162,0.04648000000000008,4.99972120164681,0.08595067597897872,-0.0795889458706114,0
1163,0.046519999999999895,5.000049991798719,0.08200519765772811,-0.07563790723084349,0
1164,0.046559999999999935,5.002680313010939,0.07838850921225148,-0.0720156551930164,0
1165,0.046599999999999975,5.000378781950543,0.07411424106876553,-0.06773581995943531,0
1166,0.046640000000000015,5.000378781950543,0.06885360338252611,-0.062469611462306146,0
1167,0.046680000000000055,4.999392411494816,0.06490812513874837,-0.05851855846465781,0
1168,0.046720000000000095,5.000049991798719,0.06030506721035353,-0.0539099216180907,0
1169,0.04675999999999991,5.000378781950543,0.05537321945707481,-0.04897249056188447,0
1170,0.04679999999999995,5.000049991798719,0.05274290066682373,-0.04633658386436621,0
1171,0.04683999999999999,4.998734831190575,0.048139842803156765,-0.041727933270379006,0
1172,0.04688000000000003,5.000378781950543,0.04452315449893275,-0.038105647194941056,0
1173,0.04692000000000007,5.000049991798719,0.04123525605372079,-0.03481214572065538,0
1174,0.04696000000000011,5.000049991798719,0.03597461856751347,-0.029545899731424727,0
1175,0.04699999999999993,5.000378781950543,0.03433066935967702,-0.0278963363314034,0
1176,0.04703999999999997,5.001693942556992,0.030713981113518377,-0.024274027989565936,0
1177,0.04708000000000001,4.999392411494816,0.029070031915759978,-0.022624452579183555,0
1178,0.04712000000000005,5.000049991798719,0.027426082721154613,-0.020974870842440634,0
1179,0.04716000000000009,5.000049991798719,0.025124553854007567,-0.018667702891958526,0
1180,0.04719999999999991,5.000049991798719,0.024466974178816228,-0.0180044773814368,0
1181,0.04723999999999995,5.000049991798719,0.024466974178816228,-0.017998824584200976,0
1182,0.04727999999999999,4.99972120164681,0.023480604666976643,-0.017006795104199297,0
1183,0.04732000000000003,5.000049991798719,0.022823024993048696,-0.01634354808305296,0
1184,0.04736000000000007,5.000378781950543,0.02117907581044083,-0.01469392396693276,0
1185,0.04740000000000011,5.000378781950543,0.020521496138282788,-0.014030661568624678,0
1186,0.04743999999999993,5.000049991798719,0.020521496138282788,-0.014024970844388628,0
1187,0.04747999999999997,4.99972120164681,0.019206336795484613,-0.012704112574717088,0
1188,0.04752000000000001,5.000378781950543,0.01821996728971463,-0.011712035735783647,0
1189,0.04756000000000005,5.001036362253937,0.015918438447348998,-0.009404790951211666,0
1190,0.04760000000000009,5.000378781950543,0.013616909611190692,-0.0070975373619528055,0
1191,0.047639999999999905,4.99972120164681,0.010986590948902406,-0.004461484934721366,0
1192,0.047679999999999945,5.000049991798719,0.009013851957515154,-0.002483002966504373,0
1193,0.047719999999999985,4.998406041038327,0.006383533309443135,0.00015306806942213527,0
1194,0.047760000000000025,5.000378781950543,0.003753214669504526,0.0027891487064708982,0
1195,0.047800000000000065,5.000049991798719,-0.00019226327513760522,0.0067403984548011255,0
1196,0.047840000000000105,4.99972120164681,-0.00348016154833046,0.010034078534672256,0
1197,0.04787999999999992,5.000049991798719,-0.006768059808773,0.013327768800284075,0
1198,0.04791999999999996,4.99972120164681,-0.009727168232258263,0.016292679622017688,0
1199,0.04796,5.000378781950543,-0.0113711173519455,0.01794244172670628,0
1200,0.04800000000000004,4.998406041038327,-0.014330225759327644,0.02090737389860124,0
1201,0.04804000000000008,4.998734831190575,-0.01696054433496612,0.023543527210105684,0
1202,0.0480799999999999,4.99972120164681,-0.018933283261316228,0.025522112034598532,0
1203,0.04811999999999994,4.99972120164681,-0.02090602218305261,0.02750070820675865,0
1204,0.04815999999999998,5.000049991798719,-0.022221181461645576,0.02882173627713989,0
1205,0.04820000000000002,4.99972120164681,-0.024851500012672237,0.03145793534948101,0
1206,0.04824000000000006,5.000049991798719,-0.025509079649145103,0.03212140742403308,0
1207,0.0482800000000001,5.000707572102282,-0.026166659285104213,0.03278489160115027,0
1208,0.04831999999999992,4.99972120164681,-0.025180289830972882,0.03180443897664452,0
1209,0.04835999999999996,5.000707572102282,-0.029125767640559533,0.03575584608878609,0
1210,0.0484,5.001365152405508,-0.028139398189897927,0.0347754185971427,0
1211,0.04844000000000004,4.999392411494816,-0.03142729635426868,0.0380692715595997,0
1212,0.04848000000000008,4.998406041038327,-0.03274245561641449,0.03939039864057421,0
1213,0.0485199999999999,5.001365152405508,-0.031756086169998185,0.03841001021447193,0
1214,0.04855999999999994,5.001365152405508,-0.03767430283110791,0.04433422127719123,0
1215,0.04859999999999998,4.99972120164681,-0.037016723204157484,0.0436826496120224,0
1216,0.04864000000000002,5.002351522859708,-0.04392130926139491,0.050593257369155,0
1217,0.04868000000000006,4.998406041038327,-0.046880417554202566,0.05355840127697689,0
1218,0.0487200000000001,4.999063621342738,-0.05608653217589139,0.0627705656048673,0
1219,0.048759999999999915,5.001036362253937,-0.06956691411691203,0.07625701151840682,0
1220,0.048799999999999955,5.001036362253937,-0.08600640399234578,0.09270257980686718,0
1221,0.048839999999999995,4.997748460733576,-0.10507621183742798,0.11177848067873353,0
1222,0.048880000000000035,4.99972120164681,-0.12809149657692737,0.13479987323108295,0
1223,0.048920000000000075,5.000378781950543,-0.15373709880569447,0.1604515982301316,0
1224,0.048960000000000115,4.998734831190575,-0.18135543875635207,0.18807607607892468,0
1225,0.04899999999999993,5.000378781950543,-0.21061772647374233,0.2173445169917825,0
1226,0.04903999999999997,5.000707572102282,-0.23823606445284673,0.2449690236322199,0
1227,0.04908000000000001,5.000049991798719,-0.2655256117414555,0.2722647552156143,0
1228,0.04912000000000005,5.000049991798719,-0.2885408918452842,0.29528623541432136,0
1229,0.04916000000000009,4.99972120164681,-0.30530916691905047,0.31206072654875056,0
1230,0.04919999999999991,4.998077250885994,-0.3184607549569337,0.32521854677782397,0
1231,0.04923999999999995,5.000378781950543,-0.32766686644940096,0.33443090675580084,0
1232,0.04927999999999999,5.000049991798719,-0.33128355307687346,0.3380538583259435,0
1233,0.04932000000000003,5.000049991798719,-0.3319411324618489,0.3387177192726386,1
1234,0.04936000000000007,5.000049991798719,-0.32733807675514653,0.33412096190764157,0
1235,0.04940000000000011,5.000049991798719,-0.3210910725374927,0.327880272971661,0
1236,0.04943999999999993,4.999392411494816,-0.3138576991692664,0.3206532319841038,0
1237,0.04947999999999997,4.998406041038327,-0.3056379566227373,0.31243983907531214,0
1238,0.04952000000000001,4.99972120164681,-0.2967606345739866,0.30356888407848337,0
1239,0.04956000000000005,5.000049991798719,-0.287883312423216,0.29469794654997794,0
1240,0.04960000000000009,5.000378781950543,-0.278019621025263,0.28484065749983356,0
1241,0.049639999999999906,5.000049991798719,-0.2697998780979539,0.27662733480011725,0
1242,0.049679999999999946,4.99972120164681,-0.26026497619360855,0.2670988711564291,0
1243,0.049719999999999986,5.000707572102282,-0.25303160225748084,0.25987195366634175,0
1244,0.049760000000000026,5.001693942556992,-0.24744217689741582,0.25428900308905733,0
1245,0.049800000000000066,5.001693942556992,-0.2402088028429088,0.24706212230446495,0
1246,0.049840000000000106,4.99972120164681,-0.23494816712508126,0.2418079984931161,0
1247,0.049879999999999924,4.99972120164681,-0.2316602697835834,0.23852663184312647,0
1248,0.049919999999999964,5.000049991798719,-0.2240981058461004,0.23097101752968158,0
1249,0.049960000000000004,5.000049991798719,-0.22146778793782235,0.2283472683245052,0
1250,0.050000000000000044,4.99972120164681,-0.21785110079965114,0.22473716911406616,0
1251,0.050040000000000084,5.000049991798719,-0.21423441364495155,0.2211270892563284,0
1252,0.0500799999999999,4.999063621342738,-0.21160409570389016,0.21850339812508934,0
1253,0.05011999999999994,5.000049991798719,-0.20831619826529435,0.2152221471518376,0
1254,0.05015999999999998,5.000378781950543,-0.20568588030461116,0.21259849545371184,0
1255,0.05020000000000002,5.000378781950543,-0.20404193157476108,0.21096123292435343,0
1256,0.05024000000000006,5.000049991798719,-0.20141161359992904,0.20833762122769678,0
1257,0.0502800000000001,5.000049991798719,-0.19943887511309688,0.2063716092355009,0
1258,0.05031999999999992,4.99972120164681,-0.19713734687227985,0.20407682784358594,0
1259,0.05035999999999996,4.99972120164681,-0.1958221878745412,0.20276843618584628,0
1260,0.0504,5.000049991798719,-0.1938494493738635,0.20080248565212167,0
1261,0.05044000000000004,4.99972120164681,-0.19253429037070002,0.19949413537774746,0
1262,0.05048000000000008,5.000049991798719,-0.19023276210994672,0.19719943674152604,0
1263,0.0505199999999999,5.000049991798719,-0.18858881334820277,0.19556233863298672,0
1264,0.05055999999999994,5.000378781950543,-0.18595849532237463,0.19293889242098938,0
1265,0.05059999999999998,5.000378781950543,-0.18365696704267448,0.1906442572467225,0
1266,0.05064000000000002,5.000049991798719,-0.18234180802272937,0.1893360127538116,0
1267,0.05068000000000006,5.000707572102282,-0.17971148997635578,0.18671263078509348,0
1268,0.0507200000000001,4.99972120164681,-0.17872512070673813,0.18573321927179387,0
1269,0.050759999999999916,5.000378781950543,-0.1767523821638599,0.18376746029095817,0
1270,0.050799999999999956,4.99972120164681,-0.1754372231325772,0.18245930275352418,0
1271,0.050839999999999996,5.000049991798719,-0.1737932743404409,0.18082237751214364,0
1272,0.050880000000000036,5.000049991798719,-0.1721493255449364,0.1791854744484212,0
1273,0.050920000000000076,4.99972120164681,-0.17083416650610883,0.17787738344553897,0
1274,0.050960000000000116,5.000378781950543,-0.169190217704546,0.1762405251062394,0
1275,0.050999999999999934,5.000049991798719,-0.16787505866087404,0.17493247907232032,0
1276,0.051039999999999974,5.000049991798719,-0.16590232009133205,0.17296687618020884,0
1277,0.051080000000000014,5.000049991798719,-0.16491595080474653,0.17198766535793525,0
1278,0.051120000000000054,4.99972120164681,-0.16228563270127483,0.16936452862387621,0
1279,0.051160000000000094,4.99972120164681,-0.1606416838822417,0.16772778419659073,0
1280,0.05119999999999991,4.99972120164681,-0.15932652482460002,0.1664198526692806,0
1281,0.05123999999999995,4.99972120164681,-0.15702499646856433,0.16412557509742362,0
1282,0.05127999999999999,5.001365152405508,-0.15669620670288015,0.16380405948404259,0
1283,0.05132000000000003,5.000049991798719,-0.1543946783393399,0.16150982875422087,0
1284,0.05136000000000007,5.000378781950543,-0.15275072950422225,0.1598732011465412,0
1285,0.05140000000000011,5.000049991798719,-0.1517643602015455,0.1588941767763388,0
1286,0.05143999999999993,4.99972120164681,-0.14979162159258003,0.15692880691521346,0
1287,0.05147999999999997,4.99972120164681,-0.1481476727480983,0.15529225074327907,0
1288,0.05152000000000001,4.99972120164681,-0.145188564819613,0.15234055952040101,0
1289,0.05156000000000005,4.999392411494816,-0.14288703642331374,0.1500464719701326,0
1290,0.05160000000000009,4.99972120164681,-0.14255824665188005,0.14972514729152747,0
1291,0.05163999999999991,4.99972120164681,-0.1405855080204771,0.1477598981051348,0
1292,0.05167999999999995,5.000049991798719,-0.13828397961110772,0.14546588359735088,0
1293,0.05171999999999999,5.000378781950543,-0.1379551898378077,0.14514463228561428,0
1294,0.05176000000000003,5.000378781950543,-0.1349960818721146,0.142193087443874,0
1295,0.05180000000000007,5.000049991798719,-0.1330233432223299,0.14022793668185143,0
1296,0.05184000000000011,4.999063621342738,-0.13137939434385165,0.13859160055537292,0
1297,0.051879999999999926,5.000049991798719,-0.12940665568529136,0.13662649961248594,0
1298,0.051919999999999966,5.000378781950543,-0.12842028635421754,0.13564779305920258,0
1299,0.051960000000000006,5.000049991798719,-0.1277627067995044,0.13499790144184803,0
1300,0.052000000000000046,5.000049991798719,-0.12578996813217858,0.13303287596790703,0
1301,0.052040000000000086,4.99972120164681,-0.12414601923909123,0.13139666561969546,0
1302,0.052079999999999904,5.000378781950543,-0.12217328056301004,0.1294316909344518,0
1303,0.052119999999999944,5.000707572102282,-0.12118691122318002,0.1284531111248981,0
1304,0.052159999999999984,5.000049991798719,-0.11921417253994292,0.12648818760385896,0
1305,0.052200000000000024,5.000378781950543,-0.11757022363360382,0.12485207958312834,0
1306,0.052240000000000064,5.000378781950543,-0.11691264407014172,0.12420236671917953,0
1307,0.052280000000000104,4.99972120164681,-0.11428232581100171,0.12157994106295746,0
1308,0.05231999999999992,4.99972120164681,-0.11263837689474214,0.11994391074152544,0
1309,0.05235999999999996,5.000049991798719,-0.1116520075434007,0.11896548606443108,0
1310,0.0524,5.000707572102282,-0.1100080586218566,0.11732950798306814,0
1311,0.05244000000000004,5.000707572102282,-0.10935047905231472,0.11667992550516076,0
1312,0.05248000000000008,5.000049991798719,-0.10639137098284411,0.11372884086330187,0
1313,0.0525199999999999,5.000049991798719,-0.10441863226392899,0.11176415199150401,0
1314,0.05255999999999994,5.000049991798719,-0.10376105268990284,0.1111146487666334,0
1315,0.05259999999999998,5.000378781950543,-0.1024458935402696,0.10980759254973113,0
1316,0.05264000000000002,5.000378781950543,-0.10014436502334141,0.1075141936296507,0
1317,0.05268000000000006,5.000378781950543,-0.09850041607873007,0.10587840102554932,0
1318,0.0527200000000001,4.999392411494816,-0.09652767734085597,0.10391384545039653,0
1319,0.05275999999999992,4.99972120164681,-0.09455493859824966,0.10194931677027548,0
1320,0.05279999999999996,5.000707572102282,-0.09323977943388458,0.10064239464471561,0
1321,0.05284,4.99972120164681,-0.09159583047547391,0.09900670977698933,0
1322,0.05288000000000004,5.000378781950543,-0.08995188151378213,0.09737105203242355,0
1323,0.05292000000000008,5.000378781950543,-0.08732156316825516,0.09474905210403012,0
1324,0.052959999999999896,5.000378781950543,-0.08600640399234578,0.09344223861783099,0
1325,0.052999999999999936,4.999392411494816,-0.0840336652245519,0.09147787288389672,0
1326,0.053039999999999976,5.000049991798719,-0.08140334686016236,0.08885595496809216,0
1327,0.053080000000000016,4.99972120164681,-0.07943060808137585,0.08689164412219559,0
1328,0.053120000000000056,5.001036362253937,-0.07811544889290346,0.08558494041950153,0
1329,0.053160000000000096,5.000378781950543,-0.07581392030804664,0.08329189494089853,0
1330,0.053199999999999914,4.999063621342738,-0.07351239171679176,0.080998877142964,0
1331,0.053239999999999954,5.000049991798719,-0.06989570391761903,0.07739072788977303,0
1332,0.053279999999999994,5.000049991798719,-0.06759417530993413,0.07509776564533026,0
1333,0.053320000000000034,5.002022732708393,-0.06627901610267752,0.073791200682179,0
1334,0.053360000000000074,5.000378781950543,-0.0629911180754263,0.07051192484250339,0
1335,0.053400000000000114,4.999392411494816,-0.06233353846841526,0.06986299542814946,0
1336,0.05343999999999993,5.000049991798719,-0.06134716905692379,0.06888530427501224,0
1337,0.05347999999999997,5.000707572102282,-0.059374430230432304,0.06692127183219225,0
1338,0.05352000000000001,5.000378781950543,-0.059703220035172325,0.06725879620454567,0
1339,0.05356000000000005,5.000378781950543,-0.059374430230432304,0.06693876920899046,0
1340,0.05360000000000009,4.999063621342738,-0.059045640425562415,0.06661877051151137,0
1341,0.05363999999999991,4.99972120164681,-0.05838806081543309,0.06597001036261867,0
1342,0.05367999999999995,4.99972120164681,-0.058716850620562686,0.0663076480374761,0
1343,0.05371999999999999,4.99972120164681,-0.05838806081543309,0.06598773456421676,0
1344,0.05376000000000003,5.000049991798719,-0.05805927101017365,0.06566784960562719,0
1345,0.05380000000000007,5.000378781950543,-0.057401691399265334,0.06501920340785185,0
1346,0.05384000000000011,5.000049991798719,-0.05674411178783788,0.06437058582669059,0
1347,0.05387999999999993,5.001036362253937,-0.05575774236972354,0.06339320710565279,0
1348,0.05391999999999997,4.999392411494816,-0.053456213722917104,0.0611006978714176,0
1349,0.05396000000000001,5.000049991798719,-0.052469844300912574,0.06012337662517109,0
1350,0.05400000000000005,5.000049991798719,-0.05049710545340523,0.05815971476330854,0
1351,0.05404000000000009,5.000049991798719,-0.0491819462191435,0.05685366137028677,0
1352,0.054079999999999906,5.000378781950543,-0.04720920736386795,0.054890057256563624,0
1353,0.054119999999999946,5.000707572102282,-0.04622283793448369,0.05391285151277074,0
1354,0.054159999999999986,5.000049991798719,-0.04392130926139491,0.05162051551204869,0
1355,0.054200000000000026,4.99972120164681,-0.04194857039370768,0.04965699834524995,0
1356,0.054240000000000066,5.000049991798719,-0.03964704170886384,0.0473647204305732,0
1357,0.054280000000000106,4.99972120164681,-0.03767430283110791,0.04540126143203073,0
1358,0.054319999999999924,5.000049991798719,-0.035372774134525484,0.04310904176248741,0
1359,0.054359999999999964,5.000049991798719,-0.03438640469119987,0.04213201053181791,0
1360,0.054400000000000004,5.000049991798719,-0.033071245431629134,0.04082621870732421,0
1361,0.054440000000000044,4.99972120164681,-0.030769716722423582,0.038534086691433586,0
1362,0.054480000000000084,5.000049991798719,-0.029783347273691016,0.03755714322908407,0
1363,0.0545199999999999,5.000049991798719,-0.028468188006913683,0.03625143927560219,0
1364,0.05455999999999994,4.99972120164681,-0.026824238920549456,0.0346169748623046,0
1365,0.05459999999999998,5.000049991798719,-0.026166659285104213,0.033968909291570926,0
1366,0.05464000000000002,5.000707572102282,-0.024522710194243194,0.03233450368795532,0
1367,0.05468000000000006,5.000378781950543,-0.024851500012672237,0.032672866446068594,0
1368,0.0547200000000001,5.000378781950543,-0.023865130556999917,0.031696099411441137,0
1369,0.05475999999999992,4.999392411494816,-0.022221181461645576,0.030061782246431676,0
1370,0.05479999999999996,4.999063621342738,-0.021892391642189743,0.029742653893578164,0
1371,0.05484,5.000049991798719,-0.022221181461645576,0.03008113474186988,0
1372,0.05488000000000004,5.000049991798719,-0.019590862902407788,0.027460536798697158,0
1373,0.05492000000000008,5.000378781950543,-0.01926207308192608,0.027141497205525236,0
1374,0.0549599999999999,5.000049991798719,-0.017618123977595282,0.025507327962785348,0
1375,0.05499999999999994,4.99972120164681,-0.015316595226152155,0.023215608729272225,0
1376,0.05503999999999998,5.000049991798719,-0.014330225759327644,0.022239078457797434,0
1377,0.05508000000000002,5.000707572102282,-0.0116999071754995,0.019618628766842644,0
1378,0.05512000000000006,5.000049991798719,-0.010713537704454032,0.018642157905322074,0
1379,0.0551600000000001,5.000378781950543,-0.00939837840793746,0.01733692695313456,0
1380,0.055199999999999916,5.000378781950543,-0.00874079875891258,0.016689305400421087,0
1381,0.055239999999999956,5.000378781950543,-0.0090695885834889,0.017028083089495716,0
1382,0.055279999999999996,5.000049991798719,-0.009727168232258263,0.01769568038618209,0
1383,0.055320000000000036,4.999392411494816,-0.0090695885834889,0.01704814818300808,0
