,seconds,Trig,EMG_amplitude,EMG_amplitude_filter,peaks
0,0.0,5.000049991798719,0.05635958900548195,0.004523006232418511,0
1,4.0000000000040004e-05,4.998077250885994,0.05767474840510757,0.003095629725675314,0
2,8.000000000008001e-05,5.000049991798719,0.05866111795613836,0.0019969907697084607,0
3,0.00011999999999989797,5.000707572102282,0.059647487508292976,0.0008982999019036542,0
4,0.00015999999999993797,5.000707572102282,0.05800353825532628,0.0024298763160660666,0
5,0.00019999999999997797,5.001036362253937,0.05734595855501376,0.0029750320424334342,0
6,0.00024000000000001798,5.000049991798719,0.05570200930641887,0.004506506570406084,0
7,0.000280000000000058,4.99972120164681,0.054058060060948765,0.006037930737488893,0
8,0.000320000000000098,5.000049991798719,0.05142774127470057,0.008555674476942436,0
9,0.00035999999999991594,5.000049991798719,0.04846863264974746,0.011402158476494548,0
10,0.00039999999999995595,5.000378781950543,0.045180734189481195,0.014577383122995245,0
11,0.00043999999999999595,5.000049991798719,0.040577676366185214,0.01906771833484111,0
12,0.00048000000000003595,5.000049991798719,0.036303408409458296,0.02322921527354918,0
13,0.000520000000000076,5.000378781950543,0.03400187951848738,0.025417925131481854,0
14,0.0005599999999998939,4.998077250885994,0.027097292882612076,0.032209645111279814,0
15,0.0005999999999999339,5.000707572102282,0.02315181482994949,0.036042209277234755,0
16,0.0006399999999999739,4.999392411494816,0.017233597785083862,0.04184746559759725,0
17,0.0006800000000000139,5.000378781950543,0.01065780111668721,0.04831025509695355,0
18,0.0007200000000000539,5.001036362253937,0.007369902801517392,0.05148510019222516,0
19,0.0007600000000000939,4.997748460733576,-0.00019226327513760522,0.05893416739222199,0
20,0.0007999999999999119,5.001036362253937,-0.0031513717215847087,0.061780131699764734,0
21,0.0008399999999999519,5.001365152405508,-0.007754429284417372,0.06627000025637421,0
22,0.0008799999999999919,4.998077250885994,-0.012028696998925656,0.07043103449267898,0
23,0.0009200000000000319,5.001365152405508,-0.01597417487006185,0.07426323480937859,0
24,0.0009600000000000719,4.998406041038327,-0.021563601822605624,0.0797393405274062,0
25,0.001000000000000112,5.002680313010939,-0.026166659285104213,0.0842290334718662,0
26,0.0010399999999999299,5.001036362253937,-0.029454557457189598,0.08740352423934884,0
27,0.0010799999999999699,4.998406041038327,-0.03241366580107112,0.09024918268942007,0
28,0.0011200000000000099,4.997748460733576,-0.03438640469119987,0.09210842959428352,0
29,0.0011600000000000499,4.99972120164681,-0.03767430283110791,0.0952827940556171,0
30,0.0012000000000000899,5.001036362253937,-0.04096220095812057,0.09845711720928277,0
31,0.0012399999999999078,4.999063621342738,-0.04589404812443025,0.10327534850639816,0
32,0.0012799999999999478,5.000049991798719,-0.04786678698281073,0.1051344309990482,0
33,0.0013199999999999878,4.99972120164681,-0.053456213722917104,0.11061016127658238,0
34,0.0013600000000000279,5.000049991798719,-0.056415321981929514,0.11345553337625597,0
35,0.0014000000000000679,5.000378781950543,-0.06167595886088427,0.11860239479955836,0
36,0.0014400000000001079,5.000049991798719,-0.06627901610267752,0.12309163769021453,0
37,0.0014799999999999258,5.000049991798719,-0.07088207331895803,0.1275808420610748,0
38,0.0015199999999999658,4.999392411494816,-0.07581392030804664,0.13239879811203187,0
39,0.0015600000000000058,5.000049991798719,-0.0820609264520449,0.13853187562712643,0
40,0.0016000000000000458,5.000049991798719,-0.08797914275542355,0.14433612601313323,0
41,0.0016400000000000858,5.000378781950543,-0.09521251817964406,0.15145549863417992,0
42,0.0016799999999999038,5.000049991798719,-0.10343226290269213,0.15956120407127822,0
43,0.0017199999999999438,4.99972120164681,-0.11329595646164246,0.16931082226488572,0
44,0.0017599999999999838,5.000707572102282,-0.12250207034268835,0.17840282510493327,0
45,0.0018000000000000238,4.99972120164681,-0.1330233432223299,0.18880995167201015,0
46,0.0018400000000000638,5.000049991798719,-0.14420219550771413,0.1998746227777018,0
47,0.0018800000000001038,5.000049991798719,-0.15636741693706202,0.21192562856501404,0
48,0.0019199999999999218,4.99972120164681,-0.16787505866087404,0.22331902058957592,0
49,0.0019599999999999618,5.000049991798719,-0.17905391046341235,0.234383589041119,0
50,0.0020000000000000018,5.000049991798719,-0.18891760310082228,0.244132965081596,0
51,0.0020400000000000418,4.99972120164681,-0.19746613662137524,0.25256714916542145,0
52,0.002080000000000082,5.001036362253937,-0.20502830081307927,0.26001493148707916,0
53,0.0021199999999998997,5.000378781950543,-0.21094651621726124,0.26581873299470116,0
54,0.0021599999999999397,5.000378781950543,-0.2122616751899738,0.26701944645147124,0
55,0.0021999999999999797,5.000378781950543,-0.21291925467551198,0.26756254920913836,1
56,0.0022400000000000198,5.000049991798719,-0.20930256749830378,0.263831354499904,0
57,0.0022800000000000598,5.000049991798719,-0.20338435208186884,0.2577986011553772,0
58,0.0023200000000000998,5.000049991798719,-0.19516460837485777,0.24946428953261157,0
59,0.0023599999999999177,4.99972120164681,-0.18168422851194627,0.23586931217499632,0
60,0.0023999999999999577,4.999392411494816,-0.16754626889961982,0.22161672589803827,0
61,0.0024399999999999977,5.000049991798719,-0.14979162159258003,0.20374742316576414,0
62,0.0024800000000000377,5.000378781950543,-0.13269455344690018,0.1865356712438738,0
63,0.0025200000000000777,5.000049991798719,-0.11559748494162976,0.1693238910213412,0
64,0.0025599999999998957,5.000378781950543,-0.09521251817964406,0.14882418501126182,0
65,0.0025999999999999357,5.000049991798719,-0.07614271010627514,0.12963961056948045,0
66,0.0026399999999999757,4.999392411494816,-0.058716850620562686,0.11209895800583916,0
67,0.0026800000000000157,4.998077250885994,-0.03931825189622702,0.09258553990514737,0
68,0.0027200000000000557,5.000378781950543,-0.024193920375685754,0.07734636312119528,0
69,0.0027600000000000957,5.000049991798719,-0.012686276645394332,0.06572384865209147,0
70,0.0027999999999999137,5.000049991798719,-0.001178632758433426,0.05410130896284746,0
71,0.0028399999999999537,4.99972120164681,0.008027482463535476,0.04478027328733044,0
72,0.0028799999999999937,4.99972120164681,0.016904807950460177,0.035788003108070336,0
73,0.0029200000000000337,4.999392411494816,0.022494235156274286,0.03008360738388043,0
74,0.0029600000000000737,5.001036362253937,0.026110923367741706,0.026351927241010063,0
75,0.0029999999999998916,5.000378781950543,0.029727611594485073,0.02262022408311328,0
76,0.0030399999999999316,4.99972120164681,0.029727611594485073,0.022505186565746644,0
77,0.0030799999999999716,5.000049991798719,0.028741242076586612,0.02337649639386012,0
78,0.0031200000000000117,5.000049991798719,0.027754872559823354,0.02424778446246964,0
79,0.0031600000000000517,5.000707572102282,0.025453343691792682,0.026434210538279223,0
80,0.0032000000000000917,4.99972120164681,0.02315181482994949,0.0286206156783843,0
81,0.0032399999999999096,5.000378781950543,0.02019270630239349,0.03146457996948139,0
82,0.0032799999999999496,4.999063621342738,0.017233597785083862,0.0343085241506505,0
83,0.0033199999999999896,4.99972120164681,0.014603279111640999,0.03682365880355037,0
84,0.0033600000000000296,5.000049991798719,0.011315380781244458,0.03999635384451756,0
85,0.0034000000000000696,5.000378781950543,0.009342641789095676,0.04185387069410074,0
86,0.0034400000000001096,5.000378781950543,0.010000221452637598,0.04108105045083803,0
87,0.0034799999999999276,4.999392411494816,0.010986590948902406,0.03997942235390624,0
88,0.0035199999999999676,5.000378781950543,0.015260858779241576,0.03558987831838786,0
89,0.0035600000000000076,4.999063621342738,0.019206336795484613,0.0315291069091093,0
90,0.0036000000000000476,5.000049991798719,0.024466974178816228,0.026153159361760655,0
91,0.0036400000000000876,5.000378781950543,0.030713981113518377,0.019790825909150656,0
92,0.0036799999999999056,5.000049991798719,0.036303408409458296,0.01408605615871561,0
93,0.0037199999999999456,5.000049991798719,0.04287920527475757,0.007394901319847345,0
94,0.0037599999999999856,5.000378781950543,0.05274290066682373,-0.0025841671471414224,0
95,0.0038000000000000256,5.000049991798719,0.06030506721035353,-0.010261721449023417,0
96,0.0038400000000000656,5.000707572102282,0.06885360338252611,-0.018925659644852835,0
97,0.0038800000000001056,5.000707572102282,0.08101882808020172,-0.031206300213167157,0
98,0.0039199999999999235,5.000049991798719,0.09252647322063803,-0.042829374652706226,0
99,0.0039599999999999635,5.000378781950543,0.10600685772026662,-0.05642520146119176,0
100,0.0040000000000000036,5.000378781950543,0.11981603229987327,-0.0703498309405104,0
101,0.0040400000000000436,5.000049991798719,0.13362520709516806,-0.08427447280728717,0
102,0.0040800000000000836,5.000049991798719,0.14710559222144168,-0.09787033675754453,0
103,0.0041199999999999015,5.000049991798719,0.15894202810996905,-0.109822262803109,0
104,0.0041599999999999415,4.998734831190575,0.16913451469481428,-0.12013025045841888,0
105,0.0041999999999999815,4.99972120164681,0.17834063170943854,-0.12945187903713512,0
106,0.0042400000000000215,5.000049991798719,0.18393005994272793,-0.13515682890817185,0
107,0.0042800000000000615,5.000049991798719,0.18787553871644425,-0.13921783897315082,0
108,0.0043200000000001015,5.000378781950543,0.1898482781097507,-0.14130611889093017,0
109,0.0043599999999999195,5.000378781950543,0.18886190841256045,-0.1404352985309559,0
110,0.0043999999999999595,5.000378781950543,0.18688916902140254,-0.1385781168691304,0
111,0.0044399999999999995,4.998406041038327,0.18425884983988045,-0.13606336338827427,0
112,0.0044800000000000395,5.000707572102282,0.1789982114997947,-0.1309182982992521,0
113,0.0045200000000000795,5.000049991798719,0.176039102446966,-0.12807476962679862,0
114,0.0045599999999998975,5.000378781950543,0.17077846415480996,-0.1229297184230963,0
115,0.0045999999999999375,5.000707572102282,0.1668329854558683,-0.11909983309930988,0
116,0.0046399999999999775,5.000707572102282,0.16387387644302698,-0.11625632332680735,0
117,0.0046800000000000175,4.99972120164681,0.15959960788614316,-0.11209765945379,0
118,0.0047200000000000575,5.000707572102282,0.15861323822206289,-0.11122689949531303,0
119,0.0047600000000000975,5.000378781950543,0.15729807867164466,-0.11002735425031257,0
120,0.0047999999999999154,5.000049991798719,0.15565412923633737,-0.1084990232981865,0
121,0.0048399999999999554,5.000707572102282,0.1569692887843418,-0.10992980508495848,0
122,0.0048799999999999955,5.000049991798719,0.1569692887843418,-0.11004543065701203,0
123,0.0049200000000000355,5.000707572102282,0.1563117090100981,-0.10950347936568713,0
124,0.0049600000000000755,5.000378781950543,0.15565412923633737,-0.10896153056317223,0
125,0.004999999999999893,5.000707572102282,0.15368138991795355,-0.10710442428170841,0
126,0.005039999999999933,5.001365152405508,0.15137986071867066,-0.10491852976225526,0
127,0.005079999999999973,5.000049991798719,0.14907833152531352,-0.10273263646876477,0
128,0.005120000000000013,5.000049991798719,0.14611922257114063,-0.09988916421151728,0
129,0.005160000000000053,4.99972120164681,0.14283132374468102,-0.09671690245596115,0
130,0.0052000000000000934,5.000378781950543,0.1392146350495857,-0.09321585078256737,0
131,0.005239999999999911,5.000049991798719,0.13592673624861432,-0.09004358853081888,0
132,0.005279999999999951,5.000049991798719,0.13165246782553117,-0.08588495576110973,0
133,0.005319999999999991,4.999392411494816,0.12935093868316216,-0.083699060952805,0
134,0.005360000000000031,5.000378781950543,0.12639182979460575,-0.08085558465545481,0
135,0.005400000000000071,4.999063621342738,0.12441909054105722,-0.07899847582662167,0
136,0.005440000000000111,5.000049991798719,0.12047361204714746,-0.07516862516722228,0
137,0.005479999999999929,5.000378781950543,0.1181720829338278,-0.07298272087441533,0
138,0.005519999999999969,4.999392411494816,0.11554176395451755,-0.07046802327775205,0
139,0.005560000000000009,5.000378781950543,0.11324023485404966,-0.06828211169812483,0
140,0.005600000000000049,5.000707572102282,0.1112674956298565,-0.06642498570895607,0
141,0.005640000000000089,5.002351522859708,0.10995233614951355,-0.06522543475374473,0
142,0.005679999999999907,5.000378781950543,0.10929475641007817,-0.06468345840540789,0
143,0.005719999999999947,5.000378781950543,0.10863717667113368,-0.06414147649932785,0
144,0.005759999999999987,5.000378781950543,0.10732201719471773,-0.0629419088732835,0
145,0.005800000000000027,5.000707572102282,0.10765080706363755,-0.06338628418576853,0
146,0.005840000000000067,5.000378781950543,0.10699322732592072,-0.06284428306044493,0
147,0.005880000000000107,5.000378781950543,0.10666443745724652,-0.06263106454857768,0
148,0.005919999999999925,4.999392411494816,0.10765080706363755,-0.06373299783172928,0
149,0.005959999999999965,5.000378781950543,0.10666443745724652,-0.0628621837975496,0
150,0.006000000000000005,5.000049991798719,0.10600685772026662,-0.06232015110368913,0
151,0.006040000000000045,4.99972120164681,0.10567806785196096,-0.06210689932483149,0
152,0.006080000000000085,5.000378781950543,0.10370532864470776,-0.06024968882874174,0
153,0.006119999999999903,4.99972120164681,0.1033765387772625,-0.06003641786953144,0
154,0.006159999999999943,4.99972120164681,0.10239016917566456,-0.05916555694856861,0
155,0.006199999999999983,5.000049991798719,0.10074621984212842,-0.05763710564337163,0
156,0.006240000000000023,4.998077250885994,0.10008864010957542,-0.057095012862144294,0
157,0.006280000000000063,5.000049991798719,0.09877348064594688,-0.05589532884809168,0
158,0.006320000000000103,5.000378781950543,0.0964719515893393,-0.05370926331455835,0
159,0.006359999999999921,5.000049991798719,0.0964719515893393,-0.05382471448636609,0
160,0.006399999999999961,4.99972120164681,0.09515679213113215,-0.052624993423925605,0
161,0.006440000000000001,5.000378781950543,0.09384163267489809,-0.0514252591626359,0
162,0.006480000000000041,4.99972120164681,0.09285526308401794,-0.050554301141093036,0
163,0.006520000000000081,4.998406041038327,0.09186889349424851,-0.04968332907026864,0
164,0.006559999999999899,5.000049991798719,0.09121131376835284,-0.04914113238814294,0
165,0.006599999999999939,5.000049991798719,0.08956736445577489,-0.04761255121938235,0
166,0.006639999999999979,5.000378781950543,0.08923857459362991,-0.04739911417633296,0
167,0.006680000000000019,5.000378781950543,0.08890978473160849,-0.047185661383927616,0
168,0.006720000000000059,4.999392411494816,0.08792341514628582,-0.04631461269399818,0
169,0.006760000000000099,4.99972120164681,0.08792341514628582,-0.04642991699044275,0
170,0.006799999999999917,5.000049991798719,0.08759462528475882,-0.04621641440170637,0
171,0.006839999999999957,4.99972120164681,0.08627946583988738,-0.04501652478128986,0
172,0.006879999999999997,5.000049991798719,0.08627946583988738,-0.04513177673275406,0
173,0.006920000000000037,5.000049991798719,0.08562188611819377,-0.044589430664908516,0
174,0.006960000000000077,4.99972120164681,0.08463551653658133,-0.043718276014935456,0
175,0.006999999999999895,5.000378781950543,0.08463551653658133,-0.04383347179980942,0
176,0.007039999999999935,5.000049991798719,0.08332035709616414,-0.04263348857298292,0
177,0.007079999999999975,5.000378781950543,0.08299156723636938,-0.042419854931019706,0
178,0.007120000000000015,4.999063621342738,0.08299156723636938,-0.04253499072866133,0
179,0.007160000000000055,5.000707572102282,0.08233398751715135,-0.041992525962512316,0
180,0.007200000000000095,4.99972120164681,0.08200519765772811,-0.041778829787253974,0
181,0.007239999999999913,5.000378781950543,0.08069003822127407,-0.040578742341783276,0
182,0.007279999999999953,4.999392411494816,0.07970366864523482,-0.039707422639325536,0
183,0.007319999999999993,5.000707572102282,0.08003245850379062,-0.04015123982990085,0
184,0.007360000000000033,5.000049991798719,0.07970366864523482,-0.039937454337705465,0
185,0.007400000000000073,5.001036362253937,0.07904608892849513,-0.039394855597636204,0
186,0.007440000000000113,4.99972120164681,0.07838850921225148,-0.0388522330444114,0
187,0.007479999999999931,4.99972120164681,0.0770733497812526,-0.037652006538890365,0
188,0.007519999999999971,4.99972120164681,0.0787172990703113,-0.03941086409207162,0
189,0.007560000000000011,5.000049991798719,0.0770733497812526,-0.03788179798204411,0
190,0.007600000000000051,5.000049991798719,0.07444303092521187,-0.0353663367962884,0
191,0.007640000000000091,4.99972120164681,0.0757581903522391,-0.03679632796128414,0
192,0.007679999999999909,4.99972120164681,0.07444303092521187,-0.035595973916425994,0
193,0.007719999999999949,5.001036362253937,0.07411424106876553,-0.03538196266295687,0
194,0.007759999999999989,5.000049991798719,0.07345666135624548,-0.03483913435092328,0
195,0.007800000000000029,5.000378781950543,0.07247029178839723,-0.033967488557868415,0
196,0.00784000000000007,5.000707572102282,0.07345666135624548,-0.03506855385171437,0
197,0.00788000000000011,5.000049991798719,0.07181271207711976,-0.03353927182679067,0
198,0.007919999999999927,5.000049991798719,0.07115513236633955,-0.03299633047552268,0
199,0.007959999999999967,5.000707572102282,0.0714839222216675,-0.033439729372887875,0
200,0.008000000000000007,5.000378781950543,0.07016876280110178,-0.0322391492542112,0
201,0.008040000000000047,5.000378781950543,0.06983997294627126,-0.032024908538563296,0
202,0.008080000000000087,5.000707572102282,0.07049755265605667,-0.03279700680238472,0
203,0.008119999999999905,4.99972120164681,0.07016876280110178,-0.03258270449400012,0
204,0.008159999999999945,5.000049991798719,0.06951118309156513,-0.03203958090137317,0
205,0.008199999999999985,4.99972120164681,0.06918239323698341,-0.031825215311973035,0
206,0.008240000000000025,5.000378781950543,0.06852481352819326,-0.03128202759469936,0
207,0.008280000000000065,4.999063621342738,0.06885360338252611,-0.03172517674508003,0
208,0.008320000000000105,4.99972120164681,0.06786723381990087,-0.03085313336136698,0
209,0.008359999999999923,5.000049991798719,0.06655207440480995,-0.02965226658652519,0
210,0.008399999999999963,4.99972120164681,0.06852481352819326,-0.03173926439010992,0
211,0.008440000000000003,5.000049991798719,0.06688086425839593,-0.03020953941922752,0
212,0.008480000000000043,4.999392411494816,0.06688086425839593,-0.030323728915766075,0
213,0.008520000000000083,5.000049991798719,0.06655207440480995,-0.030109093335404364,0
214,0.008559999999999901,4.999392411494816,0.06622328455134852,-0.029894422111070008,0
215,0.008599999999999941,5.000049991798719,0.0672096541121064,-0.03099487423623297,0
216,0.008639999999999981,4.999392411494816,0.06589449469801162,-0.029793760901357436,0
217,0.008680000000000021,4.99972120164681,0.06457933528590981,-0.028592610662989345,0
218,0.008720000000000061,5.000707572102282,0.06688086425839593,-0.031008111483591113,0
219,0.008760000000000101,4.99972120164681,0.06457933528590981,-0.02882051661364024,0
220,0.008799999999999919,5.000378781950543,0.06457933528590981,-0.028934412550805914,0
221,0.008839999999999959,5.000049991798719,0.06457933528590981,-0.029048269902989123,0
222,0.008879999999999999,5.003995473615012,0.06556570484479929,-0.030148457809645767,0
223,0.008920000000000039,4.999063621342738,0.06556570484479929,-0.030262236733745656,0
224,0.008960000000000079,5.001036362253937,0.06523691499171154,-0.030047185962024714,0
225,0.008999999999999897,5.001036362253937,0.06655207440480995,-0.03147604419487948,0
226,0.009039999999999937,4.997748460733576,0.06622328455134852,-0.03126091248087802,0
227,0.009079999999999977,5.001693942556992,0.0672096541121064,-0.03236089908230811,0
228,0.009120000000000017,4.998734831190575,0.06556570484479929,-0.03083052533859162,0
229,0.009160000000000057,4.99972120164681,0.0672096541121064,-0.03258800819431469,0
230,0.009200000000000097,5.000707572102282,0.06523691499171154,-0.030728760309271713,0
231,0.009239999999999915,4.999063621342738,0.06688086425839593,-0.03248615804056127,0
232,0.009279999999999955,4.999392411494816,0.06589449469801162,-0.03161319375656254,0
233,0.009319999999999995,4.99972120164681,0.06622328455134852,-0.03205534528080543,0
234,0.009360000000000035,4.998406041038327,0.06523691499171154,-0.031182293369550827,0
235,0.009400000000000075,5.000049991798719,0.06688086425839593,-0.03293951584526887,0
236,0.009439999999999893,5.001036362253937,0.06457933528590981,-0.03075121522586463,0
237,0.009479999999999933,4.99972120164681,0.06786723381990087,-0.0341522968406079,0
238,0.009519999999999973,5.000378781950543,0.06753844396594139,-0.03393664437892127,0
239,0.009560000000000013,4.99972120164681,0.06392175558060653,-0.030433047281461484,0
240,0.009600000000000053,5.000049991798719,0.06457933528590981,-0.03120367175455794,0
241,0.009640000000000093,5.000378781950543,0.06326417587580183,-0.03000151017671456,0
242,0.009679999999999911,4.99972120164681,0.06392175558060653,-0.030772040363048918,0
243,0.009719999999999951,5.000378781950543,0.06227780631952985,-0.029240993817803925,0
244,0.009759999999999991,5.000378781950543,0.060962646912913254,-0.028038688946604377,0
245,0.009800000000000031,5.000049991798719,0.05997627735926084,-0.027165125333487142,0
246,0.009840000000000071,5.000378781950543,0.060962646912913254,-0.028264251818578057,0
247,0.009880000000000111,4.99972120164681,0.059647487508292976,-0.027061799922340268,0
248,0.009919999999999929,5.000378781950543,0.05931869765744993,-0.026845667743122796,0
249,0.009959999999999969,5.000707572102282,0.05833232810566989,-0.025971905612771996,0
250,0.010000000000000009,4.99972120164681,0.05767474840510757,-0.02542688267026763,0
251,0.010040000000000049,5.000707572102282,0.056688378855200935,-0.024553018802140343,0
252,0.010080000000000089,5.000049991798719,0.05570200930641887,-0.023679103446222156,0
253,0.010119999999999907,5.000049991798719,0.05635958900548195,-0.024449085436870254,0
254,0.010159999999999947,5.000378781950543,0.054058060060948765,-0.022259906470556354,0
255,0.010199999999999987,4.99972120164681,0.05471563975876172,-0.023029783421415474,0
256,0.010240000000000027,4.99972120164681,0.05438684990979273,-0.022813237688794726,0
257,0.010280000000000067,4.99972120164681,0.05340048036363608,-0.02193905871104913,0
258,0.010320000000000107,5.000049991798719,0.05274290066682373,-0.021393615623760003,0
259,0.010359999999999925,5.000049991798719,0.05340048036363608,-0.022163277560548596,0
260,0.010399999999999965,5.000707572102282,0.05142774127470057,-0.02030256593167777,0
261,0.010440000000000005,4.99972120164681,0.05175653112254362,-0.0207433280496069,0
262,0.010480000000000045,4.99972120164681,0.051098951426982675,-0.020197665024386975,0
263,0.010520000000000085,5.000049991798719,0.04846863264974746,-0.017679206908284832,0
264,0.010559999999999903,5.000049991798719,0.04945500219027131,-0.018777380691577358,0
265,0.010599999999999943,4.999392411494816,0.04879742249646346,-0.018231548413326863,0
266,0.010639999999999983,4.999392411494816,0.04781105295669137,-0.017356869053366406,0
267,0.010680000000000023,5.000378781950543,0.04748226311035131,-0.017139711742873386,0
268,0.010720000000000063,4.999392411494816,0.046495893572083224,-0.016264916688587427,0
269,0.010760000000000103,5.000707572102282,0.044851944344144246,-0.01473248348518682,0
270,0.01079999999999992,5.000378781950543,0.04452315449893275,-0.01451515079781559,0
271,0.01083999999999996,5.000049991798719,0.04419436465384674,-0.0142977588369449,0
272,0.01088,4.99972120164681,0.04287920527475757,-0.01309393766184973,0
273,0.01092000000000004,4.998734831190575,0.04320799511934159,-0.01353400562394354,0
274,0.01096000000000008,5.000378781950543,0.041564045897676996,-0.012001274027377985,0
275,0.010999999999999899,5.000378781950543,0.04189283574175878,-0.012441220598560891,0
276,0.011039999999999939,4.999392411494816,0.04090646620989019,-0.011565946490550585,0
277,0.011079999999999979,5.000049991798719,0.041564045897676996,-0.012334559894053267,0
278,0.011120000000000019,5.000378781950543,0.041564045897676996,-0.012445531497075462,0
279,0.011160000000000059,5.000049991798719,0.04123525605372079,-0.012227650739247791,0
280,0.011200000000000099,5.001365152405508,0.04123525605372079,-0.012338496904636963,0
281,0.011239999999999917,4.99972120164681,0.040577676366185214,-0.011791700058262727,0
282,0.011279999999999957,5.000049991798719,0.03959130683582415,-0.010916049641706917,0
283,0.011319999999999997,5.000049991798719,0.03959130683582415,-0.011026704625391025,0
284,0.011360000000000037,5.000378781950543,0.03959130683582415,-0.011137295076555063,0
285,0.011400000000000077,4.999392411494816,0.0392625169926218,-0.010919030749966776,0
286,0.011439999999999895,5.000049991798719,0.03893372714954513,-0.010700701087296288,0
287,0.011479999999999935,5.000707572102282,0.037947357621069405,-0.009824726001735954,0
288,0.011519999999999975,5.000049991798719,0.037947357621069405,-0.009935054306255506,0
289,0.011560000000000015,5.000707572102282,0.037289777936047624,-0.009387736386833207,0
290,0.011600000000000055,5.000049991798719,0.03696098809372539,-0.009169141371049933,0
291,0.011640000000000095,5.000049991798719,0.03893372714954513,-0.011252007914594384,0
292,0.011679999999999913,4.999392411494816,0.037947357621069405,-0.0103756981356651,0
293,0.011719999999999953,4.999063621342738,0.03827614746376892,-0.010814479590761348,0
294,0.011759999999999993,5.000707572102282,0.03959130683582415,-0.012239562039487738,0
295,0.011800000000000033,4.999392411494816,0.03860493730659416,-0.011363046653025965,0
296,0.011840000000000073,4.99972120164681,0.039920096679152195,-0.012787990836673282,0
297,0.011880000000000113,5.000049991798719,0.03959130683582415,-0.012568916075383942,0
298,0.01191999999999993,4.99972120164681,0.039920096679152195,-0.013007350874735727,0
299,0.01195999999999997,5.000378781950543,0.04123525605372079,-0.014432084682758925,0
300,0.01200000000000001,5.000049991798719,0.04222162558596615,-0.01552795772974867,0
301,0.01204000000000005,5.000378781950543,0.04255041543029908,-0.01596617977439071,0
302,0.01208000000000009,4.999063621342738,0.04222162558596615,-0.01574675042062549,0
303,0.012119999999999909,4.999063621342738,0.041564045897676996,-0.015198459118278424,0
304,0.012159999999999949,5.000049991798719,0.041564045897676996,-0.015307675005135439,0
305,0.012199999999999989,5.000049991798719,0.03893372714954513,-0.012786499250743733,0
306,0.012240000000000029,5.000049991798719,0.03827614746376892,-0.01223798927198966,0
307,0.012280000000000069,5.000049991798719,0.037618567778495635,-0.011689405613852764,0
308,0.012320000000000109,5.000378781950543,0.03696098809372539,-0.011140747883601847,0
309,0.012359999999999927,5.000049991798719,0.03696098809372539,-0.011249595373212042,0
310,0.012399999999999967,4.99972120164681,0.037289777936047624,-0.011687157848385452,0
311,0.012440000000000007,5.000049991798719,0.03827614746376892,-0.01278222476079407,0
312,0.012480000000000047,5.000378781950543,0.03827614746376892,-0.01289084650636062,0
313,0.012520000000000087,5.000049991798719,0.037289777936047624,-0.012013022694578995,0
314,0.012559999999999905,5.000707572102282,0.037618567778495635,-0.012450281833287412,0
315,0.012599999999999945,4.999392411494816,0.037289777936047624,-0.012229884477824788,0
316,0.012639999999999985,4.99972120164681,0.037618567778495635,-0.012666989608846865,0
317,0.012680000000000025,4.999063621342738,0.03597461856751347,-0.011131278099353522,0
318,0.012720000000000065,4.99972120164681,0.03597461856751347,-0.011239437825548336,0
319,0.012760000000000105,5.000378781950543,0.034988249042434,-0.010361149663628947,0
320,0.012799999999999923,5.000378781950543,0.03400187951848738,-0.009482782752537779,0
321,0.012839999999999963,4.99972120164681,0.033673089677423634,-0.009261916387228708,0
322,0.012880000000000003,4.99972120164681,0.0323579303144281,-0.008054600976567426,0
323,0.012920000000000043,5.000378781950543,0.031700350633686175,-0.0075047853388990685,0
324,0.012960000000000083,4.999392411494816,0.0313715607935042,-0.007283679247171997,0
325,0.0129999999999999,4.998406041038327,0.031042770953448276,-0.007062492476079432,0
326,0.01303999999999994,5.000049991798719,0.0323579303144281,-0.008485173842146181,0
327,0.01307999999999998,5.000049991798719,0.0323579303144281,-0.008592614399462573,0
328,0.01312000000000002,5.000049991798719,0.0323579303144281,-0.008699973125607965,0
329,0.01316000000000006,5.000049991798719,0.03202914047399413,-0.008478459797244382,0
330,0.0132000000000001,5.000378781950543,0.031042770953448276,-0.00759928419228918,0
331,0.013239999999999919,5.000049991798719,0.03268672015498804,-0.009350344331037215,0
332,0.013279999999999959,5.000378781950543,0.0313715607935042,-0.008142212546981546,0
333,0.013319999999999999,5.000707572102282,0.0313715607935042,-0.008249156383739631,0
334,0.013360000000000039,5.000049991798719,0.03202914047399413,-0.00901359577993816,0
335,0.013400000000000079,5.000707572102282,0.03202914047399413,-0.00912037099473122,0
336,0.013439999999999896,5.000707572102282,0.033015509995673945,-0.010213430850938638,0
337,0.013479999999999936,4.99972120164681,0.0323579303144281,-0.009662456245123949,0
338,0.013519999999999976,5.000378781950543,0.031042770953448276,-0.008453816322169506,0
339,0.013560000000000016,4.99972120164681,0.030385191273714543,-0.007902670065270501,0
340,0.013600000000000056,4.999392411494816,0.030385191273714543,-0.008009017095656878,0
341,0.013640000000000096,5.000378781950543,0.029070031915759978,-0.0068001179989126605,0
342,0.013679999999999914,4.99972120164681,0.027097292882612076,-0.004933552081604162,0
343,0.013719999999999954,5.000707572102282,0.028083662398618273,-0.0060260071924194405,0
344,0.013759999999999994,5.000049991798719,0.026110923367741706,-0.0041592658602005415,0
345,0.013800000000000034,5.000378781950543,0.026110923367741706,-0.004265175288126788,0
346,0.013840000000000074,5.000049991798719,0.0264397132059056,-0.004699785909449326,0
347,0.013879999999999892,5.001693942556992,0.026110923367741706,-0.004476727836186872,0
348,0.013919999999999932,5.000049991798719,0.025453343691792682,-0.003924790533941841,0
349,0.013959999999999972,5.000049991798719,0.024138184341410046,-0.00271518379367754,0
350,0.014000000000000012,5.000378781950543,0.024138184341410046,-0.002820646268376817,0
351,0.014040000000000052,4.999063621342738,0.022823024993048696,-0.0016108588880198761,0
352,0.014080000000000092,5.000378781950543,0.02117907581044083,-7.219079600607158e-05,0
353,0.01411999999999991,5.000049991798719,0.02117907581044083,-0.00017738063903734516,0
354,0.01415999999999995,5.002351522859708,0.02019270630239349,0.0007038906431281831,0
355,0.01419999999999999,4.99972120164681,0.019206336795484613,0.0015852539103228987,0
356,0.01424000000000003,5.000049991798719,0.019206336795484613,0.0014803400252233825,0
357,0.01428000000000007,5.000378781950543,0.01789117745471111,0.002690678203385123,0
358,0.01432000000000011,4.99972120164681,0.01756238761983417,0.002914739965434558,0
359,0.014359999999999928,5.000049991798719,0.016247228281592724,0.004125264687349951,0
360,0.014399999999999968,5.000707572102282,0.015589648613231935,0.004678303562021355,0
361,0.014440000000000008,4.999063621342738,0.016576018115963126,0.0035874874537879815,0
362,0.014480000000000048,4.998406041038327,0.015260858779241576,0.00479829473815771,0
363,0.014520000000000088,5.000378781950543,0.015589648613231935,0.004365247769339008,0
364,0.014559999999999906,5.000049991798719,0.014932068945377922,0.00491866558366855,0
365,0.014599999999999946,5.000707572102282,0.014603279111640999,0.005143389208369915,0
366,0.014639999999999986,4.99972120164681,0.013945699444547363,0.005696998673503886,0
367,0.014680000000000026,4.99972120164681,0.013945699444547363,0.005593124840606348,0
368,0.014720000000000066,5.000049991798719,0.011972960446309217,0.007462086736391916,0
369,0.014760000000000106,4.998734831190575,0.01328811977796078,0.006043247393509496,0
370,0.014799999999999924,5.000378781950543,0.013616909611190692,0.0056108750004384925,0
371,0.014839999999999964,5.000049991798719,0.01328811977796078,0.005836180084773782,0
372,0.014880000000000004,4.99972120164681,0.013945699444547363,0.005075213839181773,0
373,0.014920000000000044,5.000378781950543,0.014274489278030808,0.004643135954908225,0
374,0.014960000000000084,4.999392411494816,0.01328811977796078,0.005526316290110387,0
375,0.014999999999999902,5.000049991798719,0.014932068945377922,0.0037792772008326987,0
376,0.015039999999999942,5.001365152405508,0.014274489278030808,0.004333866545787161,0
377,0.015079999999999982,5.000049991798719,0.014932068945377922,0.0035733965113487667,0
378,0.015120000000000022,4.999392411494816,0.015589648613231935,0.0028130267869085745,0
379,0.015160000000000062,5.000707572102282,0.015260858779241576,0.003039127229389234,0
380,0.015200000000000102,5.000378781950543,0.016576018115963126,0.0016213795201708943,0
381,0.01523999999999992,5.000049991798719,0.016247228281592724,0.0018476823543562716,0
382,0.01527999999999996,5.000707572102282,0.016247228281592724,0.0017452970791417078,0
383,0.01532,5.000049991798719,0.016247228281592724,0.0016430138809135682,0
384,0.01536000000000004,5.001693942556992,0.015260858779241576,0.0025272026133936537,0
385,0.01540000000000008,4.99972120164681,0.015260858779241576,0.0024251246226024356,0
386,0.015439999999999898,5.000378781950543,0.016247228281592724,0.001336780258612229,0
387,0.015479999999999938,4.99972120164681,0.01328811977796078,0.004194017379176547,0
388,0.015519999999999978,5.000049991798719,0.015260858779241576,0.0021195108221632635,0
389,0.015560000000000018,5.000378781950543,0.01295932994485767,0.004319376276255359,0
390,0.015600000000000058,4.999392411494816,0.01328811977796078,0.0038890275857459723,0
391,0.0156400000000001,4.99972120164681,0.012630540111881347,0.004445153264086295,0
392,0.015679999999999916,4.999063621342738,0.011972960446309217,0.005001384157702314,0
393,0.015719999999999956,5.000378781950543,0.011315380781244458,0.005557720612041477,0
394,0.015759999999999996,4.999392411494816,0.01032901128459894,0.006442952803968598,0
395,0.015800000000000036,5.000378781950543,0.01032901128459894,0.006341921749360747,0
396,0.015840000000000076,5.000378781950543,0.011315380781244458,0.005254627791645424,0
397,0.015879999999999894,4.99972120164681,0.01065780111668721,0.005811389931420059,0
398,0.015919999999999934,4.999392411494816,0.010000221452637598,0.006368259349042553,0
399,0.015959999999999974,5.000707572102282,0.01032901128459894,0.005938866890394539,0
400,0.016000000000000014,5.000378781950543,0.009671431620803153,0.0064959518879432205,0
401,0.016040000000000054,5.000378781950543,0.010986590948902406,0.005080406194047241,0
402,0.016080000000000094,5.000378781950543,0.01065780111668721,0.005308918300236101,0
403,0.016119999999999912,5.000049991798719,0.01065780111668721,0.005208749552606888,0
404,0.016159999999999952,5.000049991798719,0.01032901128459894,0.0054374799533940515,0
405,0.016199999999999992,4.999392411494816,0.01032901128459894,0.0053375301756538405,0
406,0.016240000000000032,4.998077250885994,0.01065780111668721,0.004908900555918405,0
407,0.016280000000000072,5.000378781950543,0.010986590948902406,0.004480381261978145,0
408,0.016320000000000112,5.000707572102282,0.01065780111668721,0.00470955229351391,0
409,0.01635999999999993,5.000049991798719,0.010986590948902406,0.004281254656080482,0
410,0.01639999999999997,5.000049991798719,0.010000221452637598,0.005168227676293428,0
411,0.01644000000000001,5.000378781950543,0.01032901128459894,0.0047401530304389365,0
412,0.01648000000000005,4.99972120164681,0.01065780111668721,0.0043121903788933295,0
413,0.01652000000000009,5.000707572102282,0.01032901128459894,0.0045419197175195075,0
414,0.016559999999999908,5.000049991798719,0.010000221452637598,0.004771761712853388,0
415,0.016599999999999948,5.000378781950543,0.009671431620803153,0.005001716695011904,0
416,0.016639999999999988,5.000378781950543,0.009342641789095676,0.0052317849933870226,0
417,0.016680000000000028,5.000049991798719,0.008027482463535476,0.006448336430623208,0
418,0.016720000000000068,4.999392411494816,0.008685062126061585,0.00569226285271655,0
419,0.016760000000000108,5.001693942556992,0.007041112970698912,0.007237832392845219,0
420,0.016799999999999926,5.000049991798719,0.007041112970698912,0.007139567404226431,0
421,0.016839999999999966,5.000378781950543,0.006712323140007484,0.007370207198646187,0
422,0.016880000000000006,5.000378781950543,0.005725953648695714,0.008258541931026167,0
423,0.016920000000000046,5.000378781950543,0.006712323140007484,0.007174253282373783,0
424,0.016960000000000086,5.000049991798719,0.006054743479005864,0.007734029711133432,0
425,0.016999999999999904,5.001365152405508,0.005725953648695714,0.007965132557061553,0
426,0.017039999999999944,5.000049991798719,0.005725953648695714,0.007867562142552246,0
427,0.017079999999999984,4.99972120164681,0.006383533309443135,0.007112528958430185,0
428,0.017120000000000024,5.000378781950543,0.006712323140007484,0.006686402816134649,0
429,0.017160000000000064,5.001036362253937,0.007041112970698912,0.006260394205108816,0
430,0.017200000000000104,4.999392411494816,0.006712323140007484,0.006492083105858191,0
431,0.017239999999999922,5.000378781950543,0.005397163818512657,0.007710259666038813,0
432,0.017279999999999962,5.000049991798719,0.006712323140007484,0.00629823606933076,0
433,0.017320000000000002,4.999392411494816,0.005397163818512657,0.0075166499184218015,0
434,0.017360000000000042,5.002022732708393,0.005397163818512657,0.007420023564768994,0
435,0.017400000000000082,5.003009103162085,0.00506837398845672,0.007652306475095429,0
436,0.0174399999999999,4.998734831190575,0.00506837398845672,0.007555919303690089,0
437,0.01747999999999994,5.000707572102282,0.005397163818512657,0.0071308623641800975,0
438,0.01751999999999998,4.998734831190575,0.0021092655236763236,0.010322613924364801,0
439,0.01756000000000002,4.998734831190575,0.004082004499051814,0.008253848901213019,0
440,0.01760000000000006,4.999392411494816,0.0024380553525874815,0.009801892998068825,0
441,0.0176400000000001,4.993802978897968,0.0004653163810297567,0.01167884822869552,0
442,0.017679999999999918,5.000049991798719,-0.003808951374948702,0.01585745386214525,0
443,0.017719999999999958,5.000707572102282,-0.0018362124133269458,0.013789174705334752,0
444,0.017759999999999998,5.001036362253937,-0.005124110680146385,0.01698165501245375,0
445,0.017800000000000038,4.999392411494816,-0.0090695885834889,0.020831837498940912,0
446,0.017840000000000078,5.000049991798719,-0.00808321910937683,0.019750295457381585,0
447,0.017879999999999896,4.99972120164681,-0.00939837840793746,0.020970405343670093,0
448,0.017919999999999936,4.99972120164681,-0.010055958056451306,0.02153305904005584,0
449,0.017959999999999976,5.000049991798719,-0.012357486822223915,0.023739785618012925,0
450,0.018000000000000016,4.998734831190575,-0.012028696998925656,0.02331631767457775,0
451,0.018040000000000056,5.000378781950543,-0.012028696998925656,0.023221763924680824,0
452,0.018080000000000096,5.000378781950543,-0.013343856291351444,0.024442494139204223,0
453,0.018119999999999914,4.99972120164681,-0.013343856291351444,0.02434819003424194,0
454,0.018159999999999954,5.000049991798719,-0.015316595226152155,0.026226750137154902,0
455,0.018199999999999994,5.000707572102282,-0.01597417487006185,0.026790276521572485,0
456,0.018240000000000034,4.99972120164681,-0.01696054433496612,0.02768271859788598,0
457,0.018280000000000074,5.000378781950543,-0.018275703619711994,0.028904076662630597,0
458,0.018320000000000114,5.000378781950543,-0.01926207308192608,0.029796771370301494,0
459,0.018359999999999932,5.000378781950543,-0.020577232363083744,0.03101838265842079,0
460,0.018399999999999972,5.000378781950543,-0.022549971280973066,0.03289770063999944,0
461,0.018440000000000012,5.000049991798719,-0.02090602218305261,0.03116045795689289,0
462,0.018480000000000052,5.000378781950543,-0.021563601822605624,0.031724871655953175,0
463,0.018520000000000092,4.999392411494816,-0.020577232363083744,0.030645464193370563,0
464,0.01855999999999991,5.000049991798719,-0.01926207308192608,0.02923739513849047,0
465,0.01859999999999995,5.000378781950543,-0.019590862902407788,0.029473403705659942,0
466,0.01863999999999999,4.99972120164681,-0.017289334156344746,0.027079222516930335,0
467,0.01868000000000003,5.000378781950543,-0.01696054433496612,0.026657909352927722,0
468,0.01872000000000007,5.000049991798719,-0.01630296469182467,0.02590793575576119,0
469,0.01876000000000011,5.000378781950543,-0.014659015581730453,0.024171722367954448,0
470,0.018799999999999928,5.000049991798719,-0.013343856291351444,0.02276442876304437,0
471,0.018839999999999968,4.99972120164681,-0.013343856291351444,0.022672424697716912,0
472,0.018880000000000008,4.998734831190575,-0.012357486822223915,0.02159418169763895,0
473,0.018920000000000048,5.000049991798719,-0.012357486822223915,0.021502438985388166,0
474,0.018960000000000088,4.99972120164681,-0.012357486822223915,0.021410827375306883,0
475,0.018999999999999906,4.999392411494816,-0.012028696998925656,0.020990557326711914,0
476,0.019039999999999946,5.000378781950543,-0.0113711173519455,0.020241629120977895,0
477,0.019079999999999986,5.000378781950543,-0.010384747880516562,0.019164043038237426,0
478,0.019120000000000026,5.000378781950543,-0.011042327528263687,0.019730538302154033,0
479,0.019160000000000066,5.000378781950543,-0.009727168232258263,0.018324427128975036,0
480,0.019200000000000106,5.002351522859708,-0.008412008934208556,0.01691844873871989,0
481,0.019239999999999924,5.000378781950543,-0.007425639459330238,0.015841393234048755,0
482,0.019279999999999964,5.000049991798719,-0.005452900506126915,0.013778101590041055,0
483,0.019320000000000004,5.000049991798719,-0.003808951374948702,0.012043733382752138,0
484,0.019360000000000044,5.000378781950543,-0.0024937920677107622,0.010638288888929912,0
485,0.019400000000000084,5.000378781950543,-0.0015074225859438989,0.009561768384063541,0
486,0.019439999999999902,4.99972120164681,0.00013652655288240445,0.007827802658704568,0
487,0.019479999999999942,5.001036362253937,0.0030956350107915753,0.004778812323033406,0
488,0.019519999999999982,5.000378781950543,0.005397163818512657,0.002387536617644754,0
489,0.019560000000000022,5.000049991798719,0.008027482463535476,-0.00033239367450944163,0
490,0.019600000000000062,5.000378781950543,0.011972960446309217,-0.004367347784320474,0
491,0.019640000000000102,4.99972120164681,0.015918438447348998,-0.008402166123631278,0
492,0.01967999999999992,5.000049991798719,0.02019270630239349,-0.012765638260395895,0
493,0.01971999999999996,4.999392411494816,0.022823024993048696,-0.015485024909325136,0
494,0.01976,4.998734831190575,0.025124553854007567,-0.017875485139108048,0
495,0.01980000000000004,4.99972120164681,0.026110923367741706,-0.018950649167105454,0
496,0.01984000000000008,5.000378781950543,0.027426082721154613,-0.020354465916005114,0
497,0.019879999999999898,5.000049991798719,0.027754872559823354,-0.02077177576806516,0
498,0.019919999999999938,4.999392411494816,0.028741242076586612,-0.02184652765370404,0
499,0.019959999999999978,5.000049991798719,0.028741242076586612,-0.02193477211654425,0
500,0.020000000000000018,5.000049991798719,0.028741242076586612,-0.02202287841273156,0
501,0.020040000000000058,4.99972120164681,0.028741242076586612,-0.022110846282552492,0
502,0.020080000000000098,5.000707572102282,0.028412452237539368,-0.021869885628152078,0
503,0.020119999999999916,5.000707572102282,0.027426082721154613,-0.020971206353339843,0
504,0.020159999999999956,5.000378781950543,0.029398821755059465,-0.023031496428752032,0
505,0.020199999999999996,5.000049991798719,0.029727611594485073,-0.023447697853540013,0
506,0.020240000000000036,5.000378781950543,0.029070031915759978,-0.022877390048865333,0
507,0.020280000000000076,5.000378781950543,0.029727611594485073,-0.02362210163607651,0
508,0.020319999999999894,4.99972120164681,0.028741242076586612,-0.022722723807763724,0
509,0.020359999999999934,5.000378781950543,0.029398821755059465,-0.02346715470450387,0
510,0.020399999999999974,5.000378781950543,0.027754872559823354,-0.021909916004718484,0
511,0.020440000000000014,4.999392411494816,0.027754872559823354,-0.02199648552677584,0
512,0.020480000000000054,4.99972120164681,0.02676850304419573,-0.02109654431015849,0
513,0.020520000000000094,5.000049991798719,0.02676850304419573,-0.021182831137392756,0
514,0.02055999999999991,4.99972120164681,0.025453343691792682,-0.019953816892645505,0
515,0.02059999999999995,4.99972120164681,0.024795764016348754,-0.019382240358404614,0
516,0.02063999999999999,4.998406041038327,0.02315181482994949,-0.01782415210081108,0
517,0.02068000000000003,4.999392411494816,0.02085028597429857,-0.01560834171655548,0
518,0.02072000000000007,4.99972120164681,0.018877546960101396,-0.013721178472263108,0
519,0.02076000000000011,5.000049991798719,0.014932068945377922,-0.009861133282808458,0
520,0.02079999999999993,5.000378781950543,0.014274489278030808,-0.009288843253884963,0
521,0.02083999999999997,5.000378781950543,0.011644170613713423,-0.0067436707998746286,0
522,0.02088000000000001,5.000049991798719,0.01032901128459894,-0.005513514012618712,0
523,0.02092000000000005,4.999063621342738,0.009342641789095676,-0.0046120031511346065,0
524,0.02096000000000009,5.000049991798719,0.0076986926324629085,-0.0030527684822332247,0
525,0.020999999999999908,5.000378781950543,0.006712323140007484,-0.0021509690937171165,0
526,0.021039999999999948,5.000049991798719,0.005725953648695714,-0.0012490250859939177,0
527,0.021079999999999988,5.000378781950543,0.003753214669504526,0.0006394332655709576,0
528,0.021120000000000028,5.000378781950543,0.003753214669504526,0.0005552977285697321,0
529,0.021160000000000068,5.000707572102282,0.003424424840084442,0.0008000973453262724,0
530,0.021200000000000108,5.000707572102282,0.0007941062093044515,0.0033465713205412546,0
531,0.021239999999999926,4.999392411494816,0.001780475694892425,0.00227650296829442,0
532,0.021279999999999966,4.99972120164681,0.001122896037706475,0.002850529778580505,0
533,0.021320000000000006,5.000707572102282,0.0004653163810297567,0.003424702838012956,0
534,0.021360000000000046,4.99972120164681,-0.0008498429307955274,0.004656602031188433,0
535,0.021400000000000086,4.999063621342738,-0.0005210531030302584,0.004244698791347453,0
536,0.021439999999999904,4.99972120164681,-0.0008498429307955274,0.004490522140630043,0
537,0.021479999999999944,5.000049991798719,-0.00019226327513760522,0.0037501231661392527,0
538,0.021519999999999984,4.99972120164681,-0.002165002240582567,0.00564019019749432,0
539,0.021560000000000024,5.000049991798719,-0.001178632758433426,0.004571296390126385,0
540,0.021600000000000064,5.000378781950543,-0.0024937920677107622,0.005804079206217683,0
541,0.021640000000000104,4.999392411494816,-0.00348016154833046,0.006708220247877875,0
542,0.02167999999999992,4.99972120164681,-0.003808951374948702,0.006954929910987625,0
543,0.02171999999999996,5.000378781950543,-0.0028225818947114484,0.0058866287629466595,0
544,0.02176,4.99972120164681,-0.004137741201439435,0.007120005116857395,0
545,0.02180000000000004,4.99972120164681,-0.004466531027802631,0.007367160923698025,0
546,0.02184000000000008,5.001036362253937,-0.004466531027802631,0.007285676054803526,0
547,0.0218799999999999,5.000049991798719,-0.005124110680146385,0.007861920205238012,0
548,0.02191999999999994,5.000378781950543,-0.006768059808773,0.009424683414320198,0
549,0.02195999999999998,4.999392411494816,-0.007096849634115457,0.009672437116883774,0
550,0.02200000000000002,5.000049991798719,-0.006439269983302923,0.008933971353478384,0
551,0.02204000000000006,5.000049991798719,-0.006439269983302923,0.008853235463510467,0
552,0.0220800000000001,5.000378781950543,-0.006768059808773,0.009101439833093604,0
553,0.022119999999999918,5.000378781950543,-0.007425639459330238,0.009678584672316737,0
554,0.022159999999999958,4.99972120164681,-0.007096849634115457,0.009269510889807066,0
555,0.022199999999999998,5.000378781950543,-0.00808321910937683,0.010175747470312392,0
556,0.022240000000000038,5.000049991798719,-0.00808321910937683,0.010095765845606793,0
557,0.022280000000000078,4.99972120164681,-0.008412008934208556,0.010344725522305684,0
558,0.022319999999999895,5.000378781950543,-0.0090695885834889,0.010922626705557721,0
559,0.022359999999999935,5.000049991798719,-0.008412008934208556,0.010185520476893573,0
560,0.022399999999999975,5.001693942556992,-0.010055958056451306,0.011750095109943967,0
561,0.022440000000000015,5.001036362253937,-0.009727168232258263,0.011342083089302731,0
562,0.022480000000000055,5.000049991798719,-0.010384747880516562,0.011920593035414272,0
563,0.022520000000000095,5.000049991798719,-0.011042327528263687,0.012499255675876703,0
564,0.022559999999999913,4.99972120164681,-0.009727168232258263,0.011105332267011426,0
565,0.022599999999999953,4.99972120164681,-0.0113711173519455,0.012670670366827383,0
566,0.022639999999999993,5.000049991798719,-0.0116999071754995,0.012921002461062184,0
567,0.022680000000000033,4.99972120164681,-0.012357486822223915,0.013500277865581596,0
568,0.022720000000000073,5.001365152405508,-0.0116999071754995,0.012764547659325918,0
569,0.022760000000000113,4.999392411494816,-0.012028696998925656,0.013015340800450415,0
570,0.02279999999999993,5.000378781950543,-0.01301506646843685,0.01392386765844057,0
571,0.02283999999999997,5.000049991798719,-0.014330225759327644,0.015161338601136007,0
572,0.02288000000000001,5.000707572102282,-0.014330225759327644,0.015083804707804287,0
573,0.02292000000000005,5.000049991798719,-0.014659015581730453,0.015335215282268734,0
574,0.02296000000000009,5.000049991798719,-0.014987805404005308,0.015586780691519002,0
575,0.02299999999999991,4.99972120164681,-0.01564538504817102,0.016167290946083903,0
576,0.02303999999999995,5.000378781950543,-0.01696054433496612,0.017405536054200477,0
577,0.02307999999999999,5.000049991798719,-0.01696054433496612,0.01732877727293018,0
578,0.02312000000000003,5.000378781950543,-0.01630296469182467,0.016594594431398935,0
579,0.02316000000000007,5.000378781950543,-0.01630296469182467,0.0165181470003472,0
580,0.02320000000000011,5.000049991798719,-0.017618123977595282,0.017757014805845937,0
581,0.023239999999999927,5.000378781950543,-0.01860449344057817,0.018667248921761827,0
582,0.023279999999999967,4.99972120164681,-0.017946913798717698,0.017933690247446413,0
583,0.023320000000000007,5.000049991798719,-0.018933283261316228,0.018844237172590386,0
584,0.023360000000000047,5.000049991798719,-0.01991965272276132,0.019754940770949823,0
585,0.023400000000000087,5.000378781950543,-0.01991965272276132,0.019679431760580766,0
586,0.023439999999999905,4.99972120164681,-0.020248442542986647,0.019932869600479523,0
587,0.023479999999999945,5.000049991798719,-0.020577232363083744,0.020186464646595622,0
588,0.023519999999999985,5.000049991798719,-0.020577232363083744,0.020111427254239492,0
589,0.023560000000000025,4.99972120164681,-0.02090602218305261,0.020365337237731658,0
590,0.023600000000000065,4.998406041038327,-0.020577232363083744,0.019961825310394414,0
591,0.023640000000000105,5.000378781950543,-0.021234812002893247,0.02054484074414613,0
592,0.023679999999999923,5.000707572102282,-0.0228787611001723,0.022114383707852736,0
593,0.023719999999999963,5.000378781950543,-0.021892391642189743,0.021053766358929374,0
594,0.023760000000000003,5.000049991798719,-0.023865130556999917,0.02295241579454734,0
595,0.023800000000000043,5.000707572102282,-0.023536340738185738,0.022549695076376303,0
596,0.023840000000000083,5.000378781950543,-0.02320755091924319,0.022147133104967926,0
597,0.0238799999999999,5.000049991798719,-0.024522710194243194,0.023388679140416847,0
598,0.02391999999999994,5.000049991798719,-0.024522710194243194,0.02331522497877139,0
599,0.02395999999999998,4.998734831190575,-0.025180289830972882,0.02389950969571844,0
600,0.02400000000000002,5.000049991798719,-0.025180289830972882,0.02382637418072128,0
601,0.02404000000000006,5.000049991798719,-0.025509079649145103,0.024082188050569064,0
602,0.0240800000000001,5.000049991798719,-0.026824238920549456,0.025324531101172748,0
603,0.02411999999999992,5.000049991798719,-0.027481818555480722,0.025909454402641068,0
604,0.02415999999999996,4.999063621342738,-0.026495449102891075,0.024850588662702355,0
605,0.0242,4.999392411494816,-0.02715302873807933,0.025435832214392964,0
606,0.02424000000000004,5.000049991798719,-0.026824238920549456,0.025034866673914982,0
607,0.02428000000000008,5.000378781950543,-0.028468188006913683,0.026606800553538597,0
608,0.024319999999999897,5.000049991798719,-0.029125767640559533,0.0271925256512684,0
609,0.024359999999999937,4.999392411494816,-0.028139398189897927,0.026134462489090782,0
610,0.024399999999999977,5.000378781950543,-0.029454557457189598,0.027378089021799494,0
611,0.024440000000000017,5.000049991798719,-0.030112137090063842,0.02796429704851368,0
612,0.024480000000000057,5.000049991798719,-0.028796977823800904,0.026577927454959578,0
613,0.024520000000000097,5.000378781950543,-0.029454557457189598,0.027164458189327386,0
614,0.024559999999999915,5.000378781950543,-0.029783347273691016,0.027422360683434337,0
615,0.024599999999999955,5.000378781950543,-0.029454557457189598,0.027022845268475086,0
616,0.024639999999999995,5.000049991798719,-0.030112137090063842,0.02760986117309168,0
617,0.024680000000000035,5.000378781950543,-0.030112137090063842,0.027539459460250475,0
618,0.024720000000000075,4.999392411494816,-0.030112137090063842,0.02746921990699395,0
619,0.024759999999999893,4.999392411494816,-0.029125767640559533,0.02641277320693736,0
620,0.024799999999999933,5.000049991798719,-0.029454557457189598,0.0266716482177897,0
621,0.024839999999999973,4.99972120164681,-0.029454557457189598,0.026601895997806917,0
622,0.024880000000000013,5.000049991798719,-0.028796977823800904,0.02587472687020027,0
623,0.024920000000000053,5.000378781950543,-0.028796977823800904,0.025805300240665897,0
624,0.024960000000000093,5.000378781950543,-0.028796977823800904,0.025736036613682123,0
625,0.02499999999999991,5.000049991798719,-0.028139398189897927,0.02500935649216063,0
626,0.02503999999999995,4.99972120164681,-0.028468188006913683,0.02526920909668485,0
627,0.02507999999999999,5.000049991798719,-0.028139398189897927,0.024871645477012774,0
628,0.02512000000000003,5.000049991798719,-0.026824238920549456,0.023487875948497414,0
629,0.02516000000000007,4.99972120164681,-0.028468188006913683,0.025063378451783736,0
630,0.02520000000000011,5.000049991798719,-0.026824238920549456,0.02335114658997493,0
631,0.02523999999999993,4.99972120164681,-0.026824238920549456,0.023283027752652258,0
632,0.02527999999999997,4.99972120164681,-0.027481818555480722,0.023872652617815064,0
633,0.02532000000000001,5.000049991798719,-0.026495449102891075,0.022818492591386692,0
634,0.02536000000000005,5.001365152405508,-0.026495449102891075,0.022750866340795928,0
635,0.02540000000000009,5.000049991798719,-0.026824238920549456,0.02301219435737197,0
636,0.025439999999999907,4.99972120164681,-0.026824238920549456,0.022944897131000213,0
637,0.025479999999999947,5.000049991798719,-0.028796977823800904,0.024850503506733894,0
638,0.025519999999999987,4.999063621342738,-0.027481818555480722,0.023468376532834095,0
639,0.025560000000000027,4.999392411494816,-0.029125767640559533,0.025045522856295865,0
640,0.025600000000000067,4.998406041038327,-0.030112137090063842,0.02596525460910998,0
641,0.025640000000000107,4.998406041038327,-0.03044092690630805,0.02622757191349454,0
642,0.025679999999999925,4.998406041038327,-0.03142729635426868,0.027147634153268756,0
643,0.025719999999999965,4.997748460733576,-0.03372882506167206,0.02938302107394026,0
644,0.025760000000000005,5.000049991798719,-0.0340576148765004,0.0296458346402107,0
645,0.025800000000000045,4.99972120164681,-0.037016723204157484,0.03253913237314103,0
646,0.025840000000000085,4.999063621342738,-0.039975831521371616,0.03543259586405406,0
647,0.025879999999999903,4.999063621342738,-0.0389894620834612,0.0343807474817997,0
648,0.025919999999999943,5.001036362253937,-0.0389894620834612,0.03431543453188108,0
649,0.025959999999999983,5.001365152405508,-0.04129099077011207,0.03655181637444314,0
650,0.026000000000000023,4.998406041038327,-0.04096220095812057,0.03615804593453309,0
651,0.026040000000000063,5.000378781950543,-0.04359251945043667,0.03872355012437706,0
652,0.026080000000000103,4.998406041038327,-0.039975831521371616,0.03504221432649784,0
653,0.02611999999999992,5.000049991798719,-0.04096220095812057,0.03596410243523717,0
654,0.02615999999999996,4.99972120164681,-0.04129099077011207,0.03622857756610494,0
655,0.0262,4.999392411494816,-0.04161978058197445,0.03649321944874531,0
656,0.02624000000000004,5.000049991798719,-0.04129099077011207,0.03610044856351274,0
657,0.02628000000000008,5.000378781950543,-0.04161978058197445,0.0363654242607408,0
658,0.0263199999999999,5.000049991798719,-0.04030462133375036,0.03498661795843605,0
659,0.02635999999999994,5.000378781950543,-0.04194857039370768,0.03656708712561757,0
660,0.02639999999999998,4.99972120164681,-0.0383318824575425,0.03288708655766577,0
661,0.02644000000000002,5.000049991798719,-0.0389894620834612,0.03348152091140428,0
662,0.02648000000000006,5.000707572102282,-0.03931825189622702,0.03374733290914631,0
663,0.0265200000000001,5.000049991798719,-0.03767430283110791,0.032040573582642284,0
664,0.026559999999999917,4.999392411494816,-0.03767430283110791,0.03197793097031102,0
665,0.026599999999999957,4.99972120164681,-0.03866067227056637,0.032901825540838765,0
666,0.026639999999999997,5.000378781950543,-0.03866067227056637,0.032839518508587434,0
667,0.026680000000000037,5.000378781950543,-0.03800309264438971,0.03211979977904944,0
668,0.026720000000000077,5.000378781950543,-0.03800309264438971,0.03205782869572037,0
669,0.026759999999999895,5.000049991798719,-0.0383318824575425,0.0323248155356501,0
670,0.026799999999999935,5.000378781950543,-0.03964704170886384,0.033578340012859476,0
671,0.026839999999999975,4.998077250885994,-0.0389894620834612,0.032859293900392224,0
672,0.026880000000000015,5.000049991798719,-0.03964704170886384,0.033455575412644885,0
673,0.026920000000000055,4.99972120164681,-0.039975831521371616,0.033723235571715554,0
674,0.026960000000000095,4.99972120164681,-0.04063341114600001,0.0343198540873488,0
675,0.026999999999999913,5.000049991798719,-0.04030462133375036,0.03393027179420582,0
676,0.027039999999999953,4.99972120164681,-0.04129099077011207,0.034856017460366616,0
677,0.027079999999999993,5.000378781950543,-0.04063341114600001,0.034137982858267246,0
678,0.027120000000000033,4.998734831190575,-0.04096220095812057,0.03440648656506589,0
679,0.027160000000000073,5.000707572102282,-0.04096220095812057,0.034346369411791734,0
680,0.027200000000000113,5.000378781950543,-0.04096220095812057,0.034286421288878204,0
681,0.02723999999999993,4.999063621342738,-0.04030462133375036,0.03356906264919851,0
682,0.02727999999999997,4.99972120164681,-0.039975831521371616,0.03318066300528838,0
683,0.02732000000000001,4.999392411494816,-0.04063341114600001,0.03377880205726809,0
684,0.02736000000000005,5.000378781950543,-0.04063341114600001,0.03371953081753732,0
685,0.02740000000000009,4.99972120164681,-0.04129099077011207,0.03431800860780237,0
686,0.02743999999999991,5.001036362253937,-0.04194857039370768,0.03491665587533133,0
687,0.02747999999999995,5.000378781950543,-0.04129099077011207,0.03420031344427678,0
688,0.02751999999999999,5.000049991798719,-0.039975831521371616,0.03282656100644319,0
689,0.02756000000000003,4.99972120164681,-0.04063341114600001,0.03342571712903318,0
690,0.02760000000000007,4.99972120164681,-0.039975831521371616,0.03270988375704089,0
691,0.02764000000000011,5.000049991798719,-0.04063341114600001,0.03330937945553071,0
692,0.027679999999999927,5.000049991798719,-0.04129099077011207,0.03390904504021148,0
693,0.027719999999999967,5.003337893313145,-0.04063341114600001,0.03319372132778865,0
694,0.027760000000000007,5.000049991798719,-0.04030462133375036,0.03280735744169335,0
695,0.027800000000000047,5.000378781950543,-0.039975831521371616,0.03242116363221017,0
696,0.027840000000000087,5.000049991798719,-0.04030462133375036,0.03269271958543334,0
697,0.027879999999999905,4.99972120164681,-0.04096220095812057,0.03329323554873624,0
698,0.027919999999999945,5.000049991798719,-0.039975831521371616,0.03224997270807949,0
699,0.027959999999999985,5.000049991798719,-0.04030462133375036,0.032522039431713376,0
700,0.028000000000000025,4.999063621342738,-0.04030462133375036,0.032465486715067195,0
701,0.028040000000000065,5.000049991798719,-0.0383318824575425,0.030436365550180075,0
702,0.028080000000000105,5.000049991798719,-0.03931825189622702,0.03136652318295324,0
703,0.028119999999999923,5.000049991798719,-0.03964704170886384,0.03163927172618064,0
704,0.028159999999999963,5.000707572102282,-0.0389894620834612,0.03092582142053777,0
705,0.028200000000000003,5.000378781950543,-0.0389894620834612,0.030870121381067477,0
706,0.028240000000000043,5.000378781950543,-0.0383318824575425,0.030157012406982903,0
707,0.028280000000000083,5.000049991798719,-0.03866067227056637,0.030430443612613836,0
708,0.0283199999999999,5.000707572102282,-0.03866067227056637,0.030375255794396747,0
709,0.02835999999999994,5.000049991798719,-0.03767430283110791,0.029333869373234654,0
710,0.02839999999999998,4.999063621342738,-0.03800309264438971,0.029607813087598807,0
711,0.02844000000000002,5.000707572102282,-0.03767430283110791,0.029224348103393152,0
712,0.02848000000000006,5.000049991798719,-0.03734551301769716,0.02884105409119571,0
713,0.0285200000000001,5.000378781950543,-0.03800309264438971,0.029444300534318082,0
714,0.02855999999999992,5.000707572102282,-0.03767430283110791,0.029061348594698215,0
715,0.02859999999999996,5.000049991798719,-0.03800309264438971,0.029336147379826254,0
716,0.02864,4.99972120164681,-0.0383318824575425,0.029611117302898702,0
717,0.02868000000000004,5.000378781950543,-0.03800309264438971,0.029228678776565365,0
718,0.02872000000000008,5.000378781950543,-0.03866067227056637,0.029832780904225246,0
719,0.028759999999999897,5.000378781950543,-0.03866067227056637,0.029779474657074232,0
720,0.028799999999999937,5.000707572102282,-0.03734551301769716,0.028411180444060172,0
721,0.028839999999999977,5.000049991798719,-0.03800309264438971,0.029015796432193274,0
722,0.028880000000000017,5.000378781950543,-0.03734551301769716,0.028305424522045153,0
723,0.028920000000000057,4.998406041038327,-0.03767430283110791,0.02858159343956239,0
724,0.028960000000000097,5.000378781950543,-0.0389894620834612,0.029844303214982472,0
725,0.028999999999999915,4.99972120164681,-0.03800309264438971,0.02880565574827698,0
726,0.029039999999999955,5.000378781950543,-0.03931825189622702,0.030068708451059425,0
727,0.029079999999999995,5.000378781950543,-0.03964704170886384,0.03034556322144203,0
728,0.029120000000000035,4.99972120164681,-0.03866067227056637,0.029307430274854523,0
729,0.029160000000000075,4.99972120164681,-0.04030462133375036,0.030899787389818738,0
730,0.029200000000000115,4.999392411494816,-0.04030462133375036,0.030848367026718462,0
731,0.029239999999999933,4.99972120164681,-0.04096220095812057,0.031454697897100765,0
732,0.029279999999999973,5.000707572102282,-0.042277360205311795,0.03271878002235341,0
733,0.029320000000000013,5.000049991798719,-0.04260615001678679,0.03299666436582073,0
734,0.029360000000000053,5.000378781950543,-0.04326372963934923,0.033603510195133246,0
735,0.029400000000000093,5.000378781950543,-0.04425009907222392,0.034539317529288474,0
736,0.02943999999999991,5.000049991798719,-0.04425009907222392,0.03448892714381856,0
737,0.02947999999999995,5.000707572102282,-0.04425009907222392,0.03443870848926428,0
738,0.02951999999999999,4.99972120164681,-0.045565258314247556,0.035703820824262954,0
739,0.02956000000000003,5.000049991798719,-0.045565258314247556,0.035653945680329105,0
740,0.02960000000000007,5.001036362253937,-0.04720920736386795,0.03724819136361734,0
741,0.02964000000000011,5.000378781950543,-0.046880417554202566,0.036869869978681406,0
742,0.02967999999999993,5.000049991798719,-0.04786678698281073,0.03780687963549048,0
743,0.02971999999999997,5.000378781950543,-0.04819557679208804,0.038086481487800604,0
744,0.02976000000000001,5.000378781950543,-0.048853156410254436,0.038695044974143465,0
745,0.02980000000000005,5.000378781950543,-0.0491819462191435,0.038974990485616416,0
746,0.02984000000000009,4.999392411494816,-0.04786678698281073,0.03761115879449138,0
747,0.029879999999999907,5.000707572102282,-0.04720920736386795,0.03690507857054996,0
748,0.029919999999999947,5.000049991798719,-0.04720920736386795,0.036856749821468776,0
749,0.029959999999999987,4.99972120164681,-0.04622283793448369,0.03582222350399932,0
750,0.030000000000000027,5.000378781950543,-0.04523646850393555,0.03478786905039598,0
751,0.030040000000000067,4.99972120164681,-0.04523646850393555,0.0347400558953609,0
752,0.030080000000000107,4.998406041038327,-0.04326372963934923,0.03271967574570662,0
753,0.030119999999999925,5.000378781950543,-0.042277360205311795,0.03168583689747287,0
754,0.030159999999999965,5.000049991798719,-0.042277360205311795,0.03163853935401112,0
755,0.030200000000000005,5.000378781950543,-0.04096220095812057,0.030276254432914727,0
756,0.030240000000000045,5.000378781950543,-0.03931825189622702,0.028585351564454475,0
757,0.030280000000000085,5.000378781950543,-0.03931825189622702,0.028538569621968737,0
758,0.030319999999999903,5.000378781950543,-0.03767430283110791,0.026848010474148747,0
759,0.030359999999999943,4.998406041038327,-0.03767430283110791,0.026801572245898835,0
760,0.030399999999999983,5.000378781950543,-0.03603035376276496,0.025111356797386162,0
761,0.030440000000000023,5.000378781950543,-0.0340576148765004,0.02309252337162521,0
762,0.030480000000000063,4.99972120164681,-0.033071245431629134,0.02206023121948878,0
763,0.030520000000000103,5.000049991798719,-0.030112137090063842,0.019055371993412996,0
764,0.03055999999999992,4.99972120164681,-0.029454557457189598,0.018352213288272856,0
765,0.03059999999999996,5.000049991798719,-0.02781060837275358,0.016662856932272797,0
766,0.03064,5.001365152405508,-0.026824238920549456,0.01563125199663203,0
767,0.03068000000000004,5.000049991798719,-0.024851500012672237,0.01361344937984029,0
768,0.03072000000000008,5.000378781950543,-0.024193920375685754,0.012910977793826266,0
769,0.0307599999999999,4.99972120164681,-0.024522710194243194,0.013195047407579034,0
770,0.03079999999999994,5.000049991798719,-0.024193920375685754,0.012821709111747702,0
771,0.03083999999999998,4.999392411494816,-0.024851500012672237,0.013434911981271884,0
772,0.03088000000000002,5.000707572102282,-0.026495449102891075,0.015034655995094747,0
773,0.03092000000000006,5.000049991798719,-0.026495449102891075,0.014990622589994708,0
774,0.0309600000000001,4.999392411494816,-0.025509079649145103,0.013960391381650047,0
775,0.030999999999999917,5.000049991798719,-0.026495449102891075,0.014903070709480905,0
776,0.031039999999999957,5.000049991798719,-0.02715302873807933,0.01551713182459762,0
777,0.031079999999999997,5.000049991798719,-0.026824238920549456,0.01514499506897855,0
778,0.031120000000000037,5.000049991798719,-0.027481818555480722,0.01575939932292151,0
779,0.031160000000000077,5.000049991798719,-0.028796977823800904,0.017031554741453587,0
780,0.031199999999999894,5.000049991798719,-0.030769716722423582,0.018961461294569385,0
781,0.031239999999999934,5.000049991798719,-0.03208487598559902,0.020233959688582943,0
782,0.031279999999999974,5.000049991798719,-0.03340003524671499,0.02150662952792959,0
783,0.031320000000000014,5.001036362253937,-0.03471519450577058,0.02277947078264083,0
784,0.031360000000000054,4.99972120164681,-0.035701563948709644,0.023723693607678897,0
785,0.031400000000000095,5.000378781950543,-0.03800309264438971,0.0259832470399068,0
786,0.03143999999999991,5.000378781950543,-0.03767430283110791,0.02561265328461534,0
787,0.03147999999999995,5.000378781950543,-0.03866067227056637,0.02655739006948964,0
788,0.03151999999999999,5.000707572102282,-0.03964704170886384,0.027502298105601862,0
789,0.03156000000000003,5.000378781950543,-0.039975831521371616,0.02778979773228822,0
790,0.03160000000000007,5.000049991798719,-0.04063341114600001,0.028406258350416495,0
791,0.03164000000000011,5.000378781950543,-0.04096220095812057,0.028694100297309334,0
792,0.03167999999999993,5.000049991798719,-0.04129099077011207,0.02898211334629136,0
793,0.03171999999999997,5.000378781950543,-0.04063341114600001,0.028283928021329778,0
794,0.03176000000000001,4.99972120164681,-0.04030462133375036,0.02791470352932923,0
795,0.03180000000000005,5.000378781950543,-0.04030462133375036,0.027874439828613755,0
796,0.03184000000000009,4.998734831190575,-0.03964704170886384,0.02717676743898325,0
797,0.03187999999999991,5.000049991798719,-0.039975831521371616,0.027465635378655092,0
798,0.03191999999999995,5.000378781950543,-0.03866067227056637,0.026110725101860237,0
799,0.03195999999999999,5.000049991798719,-0.03800309264438971,0.025413565250481513,0
800,0.03200000000000003,5.000049991798719,-0.037016723204157484,0.024387786338780196,0
801,0.03204000000000007,5.000378781950543,-0.03603035376276496,0.023362178131602473,0
802,0.03208000000000011,5.000049991798719,-0.03603035376276496,0.023323110022458737,0
803,0.032119999999999926,4.998077250885994,-0.035701563948709644,0.022955422705866618,0
804,0.032159999999999966,5.000049991798719,-0.03603035376276496,0.02324548557296675,0
805,0.032200000000000006,5.001036362253937,-0.03603035376276496,0.023206929129578304,0
806,0.032240000000000046,4.99972120164681,-0.035043984320212454,0.022182173694200887,0
807,0.032280000000000086,4.99972120164681,-0.035701563948709644,0.022801537726446497,0
808,0.032319999999999904,5.000378781950543,-0.035701563948709644,0.022763492471792313,0
809,0.032359999999999944,5.000049991798719,-0.035372774134525484,0.02239682768859108,0
810,0.032399999999999984,5.000378781950543,-0.03438640469119987,0.021372753504942145,0
811,0.032440000000000024,5.000378781950543,-0.03372882506167206,0.0206776393058597,0
812,0.032480000000000064,5.000378781950543,-0.03372882506167206,0.02064027484816831,0
813,0.032520000000000104,5.000049991798719,-0.03340003524671499,0.020274290627498665,0
814,0.03255999999999992,5.000049991798719,-0.031756086169998185,0.018593317136186057,0
815,0.03259999999999996,5.000049991798719,-0.031098506538410467,0.01789888301928102,0
816,0.03264,5.000049991798719,-0.029125767640559533,0.015889459502578147,0
817,0.03268000000000004,5.000378781950543,-0.026495449102891075,0.013222626148736559,0
818,0.03272000000000008,4.999392411494816,-0.028139398189897927,0.014830230157490437,0
819,0.0327599999999999,5.000378781950543,-0.02715302873807933,0.013807685299609726,0
820,0.03279999999999994,5.000707572102282,-0.025837869467188898,0.01245652022814953,0
821,0.03283999999999998,4.99972120164681,-0.026824238920549456,0.013407053418766395,0
822,0.03288000000000002,5.000378781950543,-0.02781060837275358,0.014357756077420226,0
823,0.03292000000000006,5.000049991798719,-0.029454557457189598,0.01596620776790168,0
824,0.0329600000000001,4.99972120164681,-0.031756086169998185,0.018232408415790265,0
825,0.03299999999999992,4.99972120164681,-0.03274245561641449,0.01918361905479799,0
826,0.03303999999999996,5.000049991798719,-0.03471519450577058,0.021121368321773228,0
827,0.03308,5.000049991798719,-0.03866067227056637,0.025032025575773154,0
828,0.03312000000000004,5.000049991798719,-0.04096220095812057,0.027298902789716244,0
829,0.03316000000000008,5.000378781950543,-0.044907678693494255,0.031209898013307247,0
830,0.033199999999999896,5.000707572102282,-0.048853156410254436,0.03512106210380232,0
831,0.033239999999999936,5.000378781950543,-0.05378500352999273,0.04001876440552925,0
832,0.033279999999999976,5.000049991798719,-0.06003200983978245,0.04623179462734605,0
833,0.033320000000000016,5.003009103162085,-0.06430627728788789,0.05047225463835181,0
834,0.033360000000000056,5.000378781950543,-0.06890933451510713,0.05504167299923102,0
835,0.033400000000000096,5.000049991798719,-0.07318360191751903,0.05928247002500216,0
836,0.033439999999999914,4.99972120164681,-0.07712907950017713,0.063194645638713,0
837,0.033479999999999954,4.99972120164681,-0.08041697747135755,0.06644940996569017,0
838,0.033519999999999994,5.000049991798719,-0.0840336652245519,0.07003313231553351,0
839,0.033560000000000034,5.000049991798719,-0.08666398358056253,0.07263065342421308,0
840,0.033600000000000074,5.002022732708393,-0.08929430192818714,0.07522834259475514,0
841,0.033640000000000114,4.999392411494816,-0.09028067130638286,0.07618225077940774,0
842,0.03367999999999993,5.000378781950543,-0.09159583047547391,0.07746511665085018,0
843,0.03371999999999997,5.000707572102282,-0.09323977943388458,0.07907694011892742,0
844,0.03376000000000001,5.000378781950543,-0.09258219985091413,0.0783874027634268,0
845,0.03380000000000005,5.000049991798719,-0.09192462026741856,0.07769803303476136,0
846,0.03384000000000009,4.999392411494816,-0.09093825089119083,0.07668004104935171,0
847,0.03387999999999991,4.999392411494816,-0.09028067130638286,0.07599100629904978,0
848,0.03391999999999995,5.001693942556992,-0.09028067130638286,0.07595971848401792,0
849,0.03395999999999999,4.99972120164681,-0.08732156316825516,0.07296948978717033,0
850,0.03400000000000003,5.003995473615012,-0.08534882440360501,0.07096579762503956,0
851,0.03404000000000007,5.000049991798719,-0.08337608563423975,0.06896227252343934,0
852,0.03408000000000011,5.000707572102282,-0.07975939787816717,0.06531496540346454,0
853,0.03411999999999993,5.001693942556992,-0.07811544889290346,0.06364056392480082,0
854,0.03415999999999997,4.998734831190575,-0.07680028970234042,0.062295119012593395,0
855,0.03420000000000001,4.998077250885994,-0.07384118151593398,0.059305891776637434,0
856,0.03424000000000005,4.999392411494816,-0.07022449371819571,0.05565925150087112,0
857,0.03428000000000009,4.99972120164681,-0.06825175491278114,0.05365672668746562,0
858,0.034319999999999906,5.003009103162085,-0.0715396529191989,0.05691500505353592,0
859,0.034359999999999946,4.995775719817295,-0.07351239171679176,0.05885829047512379,0
860,0.034399999999999986,5.000707572102282,-0.07252602231858225,0.05784263386104524,0
861,0.034440000000000026,5.000378781950543,-0.07285481211811588,0.05814230249973562,0
862,0.034480000000000066,5.001036362253937,-0.07482755091257769,0.06008608608236798,0
863,0.034520000000000106,5.000378781950543,-0.07548513050968754,0.06071487630975038,0
864,0.034559999999999924,5.000378781950543,-0.07548513050968754,0.06068625267431503,0
865,0.034599999999999964,5.000378781950543,-0.07548513050968754,0.060657794664465754,0
866,0.034640000000000004,4.99972120164681,-0.07285481211811588,0.05799918377903064,0
867,0.034680000000000044,5.000378781950543,-0.06989570391761903,0.055011948490163595,0
868,0.034720000000000084,5.000049991798719,-0.06233353846841526,0.0474218212466999,0
869,0.0347599999999999,4.99972120164681,-0.053456213722917104,0.038516699888780384,0
870,0.03479999999999994,5.000049991798719,-0.04326372963934923,0.028296584261471306,0
871,0.03483999999999998,5.000378781950543,-0.03241366580107112,0.017419053834088823,0
872,0.03488000000000002,5.000378781950543,-0.02090602218305261,0.005884108466676363,0
873,0.03492000000000006,5.000378781950543,-0.0090695885834889,-0.005979462158378447,0
874,0.0349600000000001,5.000049991798719,0.0014516858662357995,-0.016527709026378234,0
875,0.03499999999999992,5.000378781950543,0.008356272294735026,-0.023459103383500712,0
876,0.03503999999999996,4.99972120164681,0.015260858779241576,-0.0303903334254184,0
877,0.03508,5.000378781950543,0.019206336795484613,-0.03436229074717388,0
878,0.03512000000000004,5.000378781950543,0.02117907581044083,-0.036361344935929005,0
879,0.03516000000000008,5.000378781950543,0.023480604666976643,-0.03868902495560514,0
880,0.0351999999999999,5.000378781950543,0.02315181482994949,-0.03838622239298249,0
881,0.03523999999999994,5.000049991798719,0.025453343691792682,-0.040713574763283106,0
882,0.03527999999999998,5.000378781950543,0.027426082721154613,-0.04271197365880798,0
883,0.03532000000000002,5.000378781950543,0.028412452237539368,-0.04372383952357575,0
884,0.03536000000000006,5.002351522859708,0.033015509995673945,-0.04835223023768796,0
885,0.0354000000000001,4.99972120164681,0.036303408409458296,-0.051665298341277116,0
886,0.035439999999999916,4.99972120164681,0.040577676366185214,-0.05596457284872462,0
887,0.035479999999999956,4.99972120164681,0.045509524034943585,-0.06092126405706219,0
888,0.035519999999999996,5.000049991798719,0.050770161579389975,-0.06620658225874113,0
889,0.035560000000000036,5.000707572102282,0.05438684990979273,-0.06984778849367441,0
890,0.035600000000000076,4.99972120164681,0.05931869765744993,-0.07480399152365239,0
891,0.035639999999999894,5.000707572102282,0.0626065961714958,-0.0781160828291474,0
892,0.035679999999999934,4.999392411494816,0.06425054543319586,-0.0797840625236067,0
893,0.035719999999999974,4.99972120164681,0.06556570484479929,-0.0811230901423027,0
894,0.035760000000000014,5.000049991798719,0.06490812513874837,-0.08048921655154036,0
895,0.035800000000000054,5.001036362253937,0.06326417587580183,-0.07886881144677862,0
896,0.035840000000000094,5.000049991798719,0.060962646912913254,-0.07659066482050698,0
897,0.03587999999999991,4.99972120164681,0.056688378855200935,-0.0723396174142132,0
898,0.03591999999999995,5.000049991798719,0.05274290066682373,-0.0684171983292569,0
899,0.03595999999999999,5.000378781950543,0.04912621234330475,-0.06482340769919122,0
900,0.03600000000000003,4.99972120164681,0.04255041543029908,-0.058270347208528306,0
901,0.03604000000000007,5.000707572102282,0.03696098809372539,-0.05270349516286875,0
902,0.03608000000000011,5.001036362253937,0.030385191273714543,-0.04615011264284816,0
903,0.03611999999999993,5.000378781950543,0.024795764016348754,-0.04058293883587409,0
904,0.03615999999999997,5.000378781950543,0.01789117745471111,-0.03370044501717358,0
905,0.03620000000000001,5.000049991798719,0.011644170613713423,-0.027475370354618785,0
906,0.03624000000000005,5.001036362253937,0.004739584158527918,-0.02059255565715662,0
907,0.03628000000000009,5.000378781950543,-0.001178632758433426,-0.014695950221785728,0
908,0.03631999999999991,5.000049991798719,-0.007096849634115457,-0.008799184696957708,0
909,0.03635999999999995,5.000049991798719,-0.013343856291351444,-0.0025734694060432703,0
910,0.03639999999999999,4.99972120164681,-0.01926207308192608,0.00332361585573299,0
911,0.03644000000000003,5.000049991798719,-0.025837869467188898,0.009878440401908228,0
912,0.03648000000000007,5.000049991798719,-0.031756086169998185,0.01577584480672747,0
913,0.03652000000000011,5.000707572102282,-0.0383318824575425,0.022330988187967388,0
914,0.036559999999999926,4.998406041038327,-0.04392130926139491,0.027899921326992767,0
915,0.036599999999999966,4.99972120164681,-0.050168315645034,0.034126593136279776,0
916,0.036640000000000006,5.000378781950543,-0.05575774236972354,0.039695844225297934,0
917,0.036680000000000046,5.000049991798719,-0.0626623282719858,0.04658041327798565,0
918,0.036720000000000086,4.99972120164681,-0.06890933451510713,0.05280756130425796,0
919,0.036759999999999904,5.000049991798719,-0.07482755091257769,0.05870607796344855,0
920,0.036799999999999944,5.001036362253937,-0.08074576726775658,0.06460475290397713,0
921,0.036839999999999984,5.000378781950543,-0.08797914275542355,0.07181874514490348,0
922,0.036880000000000024,5.000049991798719,-0.09587009776051285,0.0796904749146636,0
923,0.036920000000000064,4.99972120164681,-0.10376105268990284,0.08756236246286167,0
924,0.036960000000000104,5.000049991798719,-0.11493990537658023,0.09872230546443653,0
925,0.03699999999999992,5.000049991798719,-0.12381722946007585,0.10758087740009979,0
926,0.03703999999999996,5.000378781950543,-0.13631124096930963,0.12005629413918321,0
927,0.03708,5.000049991798719,-0.15077799089766464,0.134504606514715,0
928,0.03712000000000004,5.001365152405508,-0.16820384842199382,0.1519121835424287,0
929,0.03716000000000008,5.001693942556992,-0.18760244408953197,0.1712926556076779,0
930,0.0371999999999999,5.000378781950543,-0.208644988009767,0.19231723265731018,0
931,0.03723999999999994,5.000049991798719,-0.23133148004867887,0.21498591439390816,0
932,0.03727999999999998,4.99972120164681,-0.25533313033532373,0.23896991078237587,0
933,0.03732000000000002,5.000049991798719,-0.27834841074054784,0.26196769352865457,0
934,0.03736000000000006,5.000049991798719,-0.3026788492845063,0.2862807904872442,0
935,0.0374000000000001,5.000049991798719,-0.3260229179767166,0.3096076735012584,0
936,0.03743999999999992,5.001036362253937,-0.34640787878797535,0.3299756043743446,0
937,0.03747999999999996,5.000049991798719,-0.36350494227329033,0.34705579349361854,0
938,0.03752,5.000049991798719,-0.37632773963402677,0.3598618718918124,0
939,0.03756000000000004,4.99972120164681,-0.3838899020779677,0.3674074706073382,0
940,0.03760000000000008,5.000049991798719,-0.385533850425297,0.36903501029027225,1
941,0.037639999999999896,4.99972120164681,-0.38125958471477206,0.3647444908085315,0
942,0.037679999999999936,5.000378781950543,-0.37172468419623633,0.3551934912403879,0
943,0.037719999999999976,4.99972120164681,-0.3575867280335021,0.3410395905773543,0
944,0.037760000000000016,4.99972120164681,-0.33917450565921425,0.32261157807905105,0
945,0.037800000000000056,4.99972120164681,-0.31878954465499676,0.30221098115335576,0
946,0.037840000000000096,4.99972120164681,-0.2967606345739866,0.28016658917893955,0
947,0.037879999999999914,5.000378781950543,-0.27440293414794864,0.25779356071238424,0
948,0.037919999999999954,4.99972120164681,-0.25270281253152227,0.23607826473243138,0
949,0.037959999999999994,5.000049991798719,-0.23264663898747384,0.21600707032523656,0
950,0.038000000000000034,5.000378781950543,-0.21489199312885277,0.19823755692652772,0
951,0.038040000000000074,4.999392411494816,-0.19911008536481606,0.18244093476743217,0
952,0.038080000000000114,5.000378781950543,-0.18398575679732287,0.1673020447711734,0
953,0.03811999999999993,5.000049991798719,-0.1721493255449364,0.15545120487687586,0
954,0.03815999999999997,5.000378781950543,-0.16162805317406415,0.14491567647080764,0
955,0.03820000000000001,5.000049991798719,-0.15406588857258413,0.13733940826000915,0
956,0.03824000000000005,5.000049991798719,-0.14749009320937,0.13074966153182105,0
957,0.03828000000000009,5.000707572102282,-0.13959913870297558,0.12284490772257116,0
958,0.03831999999999991,4.998406041038327,-0.13565366142097834,0.11888578301692035,0
959,0.03835999999999995,5.000378781950543,-0.13170818411981328,0.11492680998769889,0
960,0.03839999999999999,5.000707572102282,-0.12809149657692737,0.1112967782280633,0
961,0.03844000000000003,5.000049991798719,-0.126118757910398,0.10931084667111737,0
962,0.03848000000000007,5.000049991798719,-0.12348843968092783,0.10666748669190912,0
963,0.03852000000000011,5.000049991798719,-0.12085812144297166,0.1040242776585602,0
964,0.03855999999999993,4.99972120164681,-0.11921417253994292,0.10236758872747483,0
965,0.03859999999999997,4.998077250885994,-0.11724143385193893,0.10038226059106768,0
966,0.03864000000000001,4.99972120164681,-0.11658385428821218,0.09971224197023751,0
967,0.03868000000000005,5.000378781950543,-0.11493990537658023,0.09805600420377963,0
968,0.03872000000000009,4.99972120164681,-0.11230958711109378,0.09541354709605622,0
969,0.038759999999999906,4.99972120164681,-0.11198079732731327,0.09507276829227548,0
970,0.038799999999999946,5.000378781950543,-0.11230958711109378,0.09538971868727893,0
971,0.038839999999999986,5.000049991798719,-0.11296716667825839,0.09603560830521723,0
972,0.038880000000000026,5.001036362253937,-0.11329595646164246,0.09635285738659703,0
973,0.038920000000000066,5.000049991798719,-0.11230958711109378,0.09535509638828345,0
974,0.038960000000000106,5.000049991798719,-0.11296716667825839,0.09600143316828876,0
975,0.038999999999999924,5.000049991798719,-0.11296716667825839,0.09599033904745252,0
976,0.039039999999999964,5.000049991798719,-0.11428232581100171,0.09729455253075393,0
977,0.039080000000000004,5.000049991798719,-0.11428232581100171,0.09728375515713375,0
978,0.039120000000000044,5.000378781950543,-0.11493990537658023,0.09793068542869983,0
979,0.039160000000000084,5.000378781950543,-0.11428232581100171,0.09726260445186377,0
980,0.0391999999999999,5.002022732708393,-0.11428232581100171,0.0972522507258719,0
981,0.03923999999999994,5.000049991798719,-0.1136247462448944,0.09658446492091538,0
982,0.03927999999999998,5.000049991798719,-0.11461111559385707,0.09756077531941723,0
983,0.03932000000000002,5.000378781950543,-0.1136247462448944,0.09656449410899913,0
984,0.03936000000000006,5.000707572102282,-0.11296716667825839,0.09589714956990386,0
985,0.0394000000000001,4.99972120164681,-0.11198079732731327,0.0949011619348628,0
986,0.03943999999999992,5.000378781950543,-0.11132321775935598,0.09423411056991897,0
987,0.03947999999999996,5.000049991798719,-0.10967926883715166,0.09258083613596506,0
988,0.03952,4.99972120164681,-0.10967926883715166,0.09257165670696406,0
989,0.03956000000000004,5.000378781950543,-0.10803531991164712,0.09091867423210531,0
990,0.03960000000000008,5.000378781950543,-0.10573379141039972,0.08860825785743781,0
991,0.0396399999999999,5.000049991798719,-0.10507621183742798,0.08794193588265904,0
992,0.03967999999999994,4.99972120164681,-0.10310347311534969,0.08596060002546002,0
993,0.03971999999999998,4.999392411494816,-0.10178831396466272,0.08463698880080862,0
994,0.03976000000000002,5.000049991798719,-0.10014436502334141,0.08298473264054874,0
995,0.03980000000000006,5.000707572102282,-0.09850041607873007,0.08133262112529632,0
996,0.0398400000000001,4.999063621342738,-0.09685646713083039,0.07968065404772934,0
997,0.039879999999999916,4.99972120164681,-0.09554130797014417,0.07835762099043311,0
998,0.039919999999999956,5.000378781950543,-0.09192462026741856,0.07473320341564806,0
999,0.039959999999999996,4.99972120164681,-0.09159583047547391,0.07439682756710003,0
1000,0.040000000000000036,5.000049991798719,-0.08896551213519292,0.07175906677599217,0
1001,0.040040000000000076,4.99972120164681,-0.08765035296190492,0.0704366085473917,0
1002,0.040080000000000116,5.000049991798719,-0.08502003460903816,0.06779913432388468,0
1003,0.040119999999999933,4.99972120164681,-0.08337608563423975,0.06614817245169849,0
1004,0.040159999999999973,5.000049991798719,-0.0820609264520449,0.06482614313337359,0
1005,0.040200000000000014,4.99972120164681,-0.07975939787816717,0.0625178869720564,0
1006,0.040240000000000054,4.99972120164681,-0.07712907950017713,0.05988098334218042,0
1007,0.040280000000000094,5.000378781950543,-0.07680028970234042,0.059545750414307194,0
1008,0.04031999999999991,4.99972120164681,-0.07482755091257769,0.05756671040208861,0
1009,0.04035999999999995,5.001036362253937,-0.07219723251891826,0.05493023247872313,0
1010,0.04039999999999999,4.99972120164681,-0.06956691411691203,0.052293896024370186,0
1011,0.04044000000000003,5.000049991798719,-0.06726538550831525,0.049986490624838585,0
1012,0.04048000000000007,5.000049991798719,-0.06496385689333826,0.04767922626383707,0
1013,0.04052000000000011,5.000049991798719,-0.06331990787873677,0.04602968233106817,0
1014,0.04055999999999993,5.000049991798719,-0.06003200983978245,0.04273632998420162,0
1015,0.04059999999999997,5.000707572102282,-0.057401691399265334,0.04010069762787945,0
1016,0.04064000000000001,5.000049991798719,-0.05542895256342596,0.038122785049650665,0
1017,0.04068000000000005,5.000378781950543,-0.05312742391571186,0.035816222613730575,0
1018,0.04072000000000009,5.000707572102282,-0.05115468506975916,0.03383858971398501,0
1019,0.04075999999999991,4.999063621342738,-0.04852436660123595,0.031203516705776327,0
1020,0.04079999999999995,5.000378781950543,-0.04852436660123595,0.031198901459359676,0
1021,0.04083999999999999,5.000049991798719,-0.04589404812443025,0.028564106808037323,0
1022,0.04088000000000003,5.000049991798719,-0.04293493982813261,0.025600661187226606,0
1023,0.04092000000000007,5.000049991798719,-0.04161978058197445,0.02428130324413745,0
1024,0.04096000000000011,4.998406041038327,-0.04063341114600001,0.023290873515870322,0
1025,0.040999999999999925,5.001036362253937,-0.039975831521371616,0.02262937178012385,0
1026,0.041039999999999965,4.99972120164681,-0.03866067227056637,0.021310428375394277,0
1027,0.041080000000000005,4.999063621342738,-0.037016723204157484,0.01966283288775937,0
1028,0.041120000000000045,5.000049991798719,-0.03734551301769716,0.019988113787763898,0
1029,0.041160000000000085,5.000049991798719,-0.03668793339048888,0.01932716252919449,0
1030,0.0411999999999999,5.000049991798719,-0.03471519450577058,0.01735118906926536,0
1031,0.04123999999999994,5.000378781950543,-0.03471519450577058,0.017348091323676873,0
1032,0.04127999999999998,4.99972120164681,-0.03340003524671499,0.0160299709216256,0
1033,0.04132000000000002,5.001036362253937,-0.03208487598559902,0.014711986892578216,0
1034,0.04136000000000006,5.000378781950543,-0.03274245561641449,0.015366877902501852,0
1035,0.0414000000000001,5.000378781950543,-0.03044092690630805,0.013062796490024897,0
1036,0.04143999999999992,5.000049991798719,-0.031098506538410467,0.013717959109268832,0
1037,0.04147999999999996,5.000049991798719,-0.030769716722423582,0.013386887740437892,0
1038,0.04152,5.000049991798719,-0.029125767640559533,0.011740792335760891,0
1039,0.04156000000000004,5.000378781950543,-0.028796977823800904,0.01140999119575413,0
1040,0.04160000000000008,4.999392411494816,-0.02715302873807933,0.009764165555402618,0
1041,0.0416399999999999,5.000378781950543,-0.026495449102891075,0.009104843902778284,0
1042,0.04167999999999994,5.000378781950543,-0.024851500012672237,0.0074592871004178635,0
1043,0.04171999999999998,4.998734831190575,-0.023536340738185738,0.006142654186712421,0
1044,0.04176000000000002,5.000378781950543,-0.022549971280973066,0.005154944930362004,0
1045,0.04180000000000006,5.000378781950543,-0.023536340738185738,0.006140108195209715,0
1046,0.0418400000000001,5.001365152405508,-0.021563601822605624,0.004166296460264729,0
1047,0.04187999999999992,4.999392411494816,-0.020577232363083744,0.003178987320143767,0
1048,0.04191999999999996,5.000049991798719,-0.021892391642189743,0.004493339822723291,0
1049,0.04196,5.000049991798719,-0.021563601822605624,0.00416387589553599,0
1050,0.04200000000000004,4.99972120164681,-0.021563601822605624,0.0041633342212533675,0
1051,0.04204000000000008,5.000378781950543,-0.022549971280973066,0.005149294202605306,0
1052,0.042079999999999895,5.000378781950543,-0.0228787611001723,0.005477806505554711,0
1053,0.042119999999999935,5.000049991798719,-0.023536340738185738,0.006135240351137106,0
1054,0.042159999999999975,5.000707572102282,-0.022221181461645576,0.004820066768595241,0
1055,0.042200000000000015,5.001036362253937,-0.023536340738185738,0.006135342987733619,0
1056,0.042240000000000055,5.001036362253937,-0.023865130556999917,0.006464380759479291,0
1057,0.042280000000000095,4.99972120164681,-0.025180289830972882,0.00777991875801598,0
1058,0.04231999999999991,5.000049991798719,-0.023536340738185738,0.006136478922292049,0
1059,0.04235999999999995,5.001036362253937,-0.024851500012672237,0.0074522777467796175,0
1060,0.04239999999999999,4.999392411494816,-0.022221181461645576,0.004822728798704046,0
1061,0.04244000000000003,5.000049991798719,-0.023865130556999917,0.006467577309548264,0
1062,0.04248000000000007,5.003009103162085,-0.01991965272276132,0.002523128462506602,0
1063,0.04252000000000011,4.998406041038327,-0.017618123977595282,0.00022275803499505198,0
1064,0.04255999999999993,4.999392411494816,-0.014987805404005308,-0.0024062731321475017,0
1065,0.04259999999999997,4.998734831190575,-0.014330225759327644,-0.003062436523661824,0
1066,0.04264000000000001,4.99972120164681,-0.012686276645394332,-0.004704840780202543,0
1067,0.04268000000000005,4.99972120164681,-0.010713537704454032,-0.0066759065024146885,0
1068,0.04272000000000009,5.001036362253937,-0.007096849634115457,-0.0102907932359875,0
1069,0.04275999999999991,5.000049991798719,-0.006110480157705198,-0.011275233501293891,0
1070,0.04279999999999995,4.999392411494816,-0.0024937920677107622,-0.014889864749944595,0
1071,0.04283999999999999,5.000049991798719,-0.002165002240582567,-0.015216470349983469,0
1072,0.04288000000000003,5.000049991798719,0.0021092655236763236,-0.019488426746294973,0
1073,0.04292000000000007,4.99972120164681,0.0014516858662357995,-0.018828408825327034,0
1074,0.04296000000000011,5.000049991798719,0.0021092655236763236,-0.019483423569325864,0
1075,0.04299999999999993,4.99972120164681,0.0030956350107915753,-0.020467101739135934,0
1076,0.04303999999999997,5.000707572102282,0.004410794328726292,-0.021779443582335106,0
1077,0.04308000000000001,4.99972120164681,0.0030956350107915753,-0.020461340879047205,0
1078,0.04312000000000005,5.000049991798719,0.004082004499051814,-0.021444641318526164,0
1079,0.04316000000000009,5.000378781950543,0.003424424840084442,-0.020783867194912875,0
1080,0.043199999999999905,5.000049991798719,0.0027668451816259126,-0.020122967903878478,0
1081,0.043239999999999945,5.000378781950543,0.0024380553525874815,-0.019790733522637452,0
1082,0.043279999999999985,5.000378781950543,0.0021092655236763236,-0.01945837447056599,0
1083,0.043320000000000025,4.99972120164681,0.001122896037706475,-0.0184683113395101,0
1084,0.043360000000000065,5.000707572102282,0.001122896037706475,-0.01846449352189039,0
1085,0.043400000000000105,4.99972120164681,0.001122896037706475,-0.018460551781486367,0
1086,0.04343999999999992,5.000049991798719,0.0004653163810297567,-0.017798906711725196,0
1087,0.04347999999999996,4.99972120164681,0.001122896037706475,-0.018452297533092604,0
1088,0.04352,5.000049991798719,0.0014516858662357995,-0.01877677535489225,0
1089,0.04356000000000004,5.000378781950543,0.0014516858662357995,-0.018772340427892956,0
1090,0.04360000000000008,5.001036362253937,0.0024380553525874815,-0.019754152318469748,0
1091,0.0436399999999999,5.000707572102282,0.0027668451816259126,-0.020078262134792205,0
1092,0.04367999999999994,5.000707572102282,0.004739584158527918,-0.02204619893420938,0
1093,0.04371999999999998,5.000049991798719,0.00506837398845672,-0.02237006467439165,0
1094,0.04376000000000002,5.000049991798719,0.005725953648695714,-0.02302259858546174,0
1095,0.04380000000000006,4.99972120164681,0.006712323140007484,-0.02400380092135089,0
1096,0.0438400000000001,5.000378781950543,0.008685062126061585,-0.025971251599223852,0
1097,0.04387999999999992,5.000707572102282,0.009671431620803153,-0.02695221188684485,0
1098,0.04391999999999996,5.000378781950543,0.01065780111668721,-0.027933051530809078,0
1099,0.04396,5.000378781950543,0.011315380781244458,-0.02858498095310552,0
1100,0.04400000000000004,5.000378781950543,0.01295932994485767,-0.030223159738890504,0
1101,0.04404000000000008,5.000049991798719,0.01328811977796078,-0.030546059313683968,0
1102,0.0440799999999999,5.000707572102282,0.01328811977796078,-0.030540049430288513,0
1103,0.04411999999999994,4.99972120164681,0.014603279111640999,-0.031849079511190065,0
1104,0.04415999999999998,5.000049991798719,0.015260858779241576,-0.032500410812635425,0
1105,0.04420000000000002,5.001036362253937,0.016247228281592724,-0.03348041309176285,0
1106,0.04424000000000006,5.000378781950543,0.015918438447348998,-0.03314513743383339,0
1107,0.0442800000000001,4.99972120164681,0.016576018115963126,-0.03379611293520211,0
1108,0.044319999999999915,5.000707572102282,0.017233597785083862,-0.03444697035071298,0
1109,0.044359999999999955,5.000707572102282,0.019206336795484613,-0.03641286927862479,0
1110,0.044399999999999995,5.000049991798719,0.02019270630239349,-0.03739228113193829,0
1111,0.044440000000000035,5.000049991798719,0.02216544531962629,-0.039357945182526305,0
1112,0.044480000000000075,5.000707572102282,0.024466974178816228,-0.04165228202036084,0
1113,0.044520000000000115,4.99972120164681,0.025124553854007567,-0.04230255287810386,0
1114,0.04455999999999993,5.000378781950543,0.0264397132059056,-0.04361028687535476,0
1115,0.04459999999999997,5.000378781950543,0.0264397132059056,-0.043602745242676474,0
1116,0.04464000000000001,5.000049991798719,0.028741242076586612,-0.045896616462086495,0
1117,0.04468000000000005,5.001036362253937,0.029398821755059465,-0.04654642273040219,0
1118,0.04472000000000009,5.000378781950543,0.031042770953448276,-0.048182483019719446,0
1119,0.04475999999999991,4.999392411494816,0.03268672015498804,-0.04981842807350771,0
1120,0.04479999999999995,4.997419670581074,0.033015509995673945,-0.050139098788256634,0
1121,0.04483999999999999,5.000049991798719,0.03334429983648583,-0.05045965478569782,0
1122,0.04488000000000003,4.999392411494816,0.034988249042434,-0.05209525569184777,0
1123,0.04492000000000007,4.99972120164681,0.036303408409458296,-0.053401952563904204,0
1124,0.04496000000000011,5.000378781950543,0.03663219825152894,-0.05372216597734408,0
1125,0.04499999999999993,5.000049991798719,0.03597461856751347,-0.05305589619278757,0
1126,0.04503999999999997,5.000378781950543,0.03564582872569445,-0.05271830284051314,0
1127,0.04508000000000001,4.997748460733576,0.037289777936047624,-0.054353335392732974,0
1128,0.04512000000000005,5.000378781950543,0.037947357621069405,-0.05500188553441769,0
1129,0.04516000000000009,5.000378781950543,0.037947357621069405,-0.05499274336858603,0
1130,0.04519999999999991,5.000049991798719,0.03893372714954513,-0.05596985837167667,0
1131,0.04523999999999995,5.000049991798719,0.03959130683582415,-0.05661807143618772,0
1132,0.04527999999999999,5.000378781950543,0.039920096679152195,-0.056937382824761934,0
1133,0.04532000000000003,5.000378781950543,0.039920096679152195,-0.05692779280064306,0
1134,0.04536000000000007,4.99972120164681,0.03959130683582415,-0.056589301627672825,0
1135,0.04540000000000011,5.002351522859708,0.040577676366185214,-0.05756585878692834,0
1136,0.045439999999999925,5.000707572102282,0.04123525605372079,-0.058213515326170306,0
1137,0.045479999999999965,5.000378781950543,0.04123525605372079,-0.05820348166517665,0
1138,0.045520000000000005,5.000049991798719,0.041564045897676996,-0.05852212760013699,0
1139,0.045560000000000045,4.99972120164681,0.041564045897676996,-0.05851187370804374,0
1140,0.045600000000000085,5.000378781950543,0.041564045897676996,-0.05850151009796191,0
1141,0.0456399999999999,5.000049991798719,0.041564045897676996,-0.05849103703520141,0
1142,0.04567999999999994,5.003009103162085,0.04189283574175878,-0.058809244629352386,0
1143,0.04571999999999998,5.000049991798719,0.04189283574175878,-0.05879855345795537,0
1144,0.04576000000000002,5.000049991798719,0.04287920527475757,-0.05977412316398807,0
1145,0.04580000000000006,5.000049991798719,0.04189283574175878,-0.05877684541454169,0
1146,0.0458400000000001,5.000049991798719,0.04320799511934159,-0.06008098845247056,0
1147,0.04587999999999992,5.000049991798719,0.04353678496405114,-0.06039865410077992,0
1148,0.04591999999999996,5.000707572102282,0.04419436465384674,-0.061045002004071175,0
1149,0.04596,5.000049991798719,0.04452315449893275,-0.06136245273937009,0
1150,0.04600000000000004,5.000049991798719,0.04452315449893275,-0.061351006573298075,0
1151,0.04604000000000008,5.000049991798719,0.045180734189481195,-0.06199703330866102,0
1152,0.0460799999999999,5.000378781950543,0.043865574808886185,-0.0606702144511093,0
1153,0.04611999999999994,4.99972120164681,0.04452315449893275,-0.06131602840993819,0
1154,0.04615999999999998,4.999392411494816,0.046495893572083224,-0.06327689576528542,0
1155,0.04620000000000002,5.000049991798719,0.04616710372624461,-0.06293612848289602,0
1156,0.04624000000000006,5.000049991798719,0.045838313880531376,-0.06259525574988226,0
1157,0.0462800000000001,5.000378781950543,0.04682468341804723,-0.0635694372175026,0
1158,0.04631999999999992,5.000049991798719,0.04682468341804723,-0.06355714423332126,0
1159,0.04635999999999996,5.000049991798719,0.04748226311035131,-0.06420232629561898,0
1160,0.0464,5.000049991798719,0.04879742249646346,-0.06550498367450959,0
1161,0.04644000000000004,5.000378781950543,0.04912621234330475,-0.06582116740567034,0
1162,0.04648000000000008,4.99972120164681,0.04945500219027131,-0.06613724729739726,0
1163,0.046519999999999895,4.99972120164681,0.048139842803156765,-0.06480927438452487,0
1164,0.046559999999999935,5.000378781950543,0.04748226311035131,-0.06413877786462284,0
1165,0.046599999999999975,5.000049991798719,0.04912621234330475,-0.06576970723845613,0
1166,0.046640000000000015,5.000049991798719,0.050112581884580176,-0.06674295415803594,0
1167,0.046680000000000055,5.000378781950543,0.05044137173192248,-0.06705851889068548,0
1168,0.046720000000000095,5.000707572102282,0.052085320970511856,-0.06868914079129065,0
1169,0.04675999999999991,5.000049991798719,0.05175653112254362,-0.06834692165187718,0
1170,0.04679999999999995,5.000049991798719,0.05274290066682373,-0.06931976022120334,0
1171,0.04683999999999999,5.001036362253937,0.052414110818605225,-0.06897733798459352,0
1172,0.04688000000000003,4.998077250885994,0.05372927021222988,-0.07027876384657725,0
1173,0.04692000000000007,4.99972120164681,0.054058060060948765,-0.07059371929070717,0
1174,0.04696000000000011,5.000049991798719,0.05274290066682373,-0.06926462488945773,0
1175,0.04699999999999993,5.000378781950543,0.05307169051516736,-0.06957937939866243,0
1176,0.04703999999999997,5.000378781950543,0.054058060060948765,-0.07055161354391704,0
1177,0.04708000000000001,5.000049991798719,0.054058060060948765,-0.07053737835273205,0
1178,0.04712000000000005,4.999392411494816,0.05438684990979273,-0.0708518334905629,0
1179,0.04716000000000009,5.000049991798719,0.05537321945707481,-0.07182376907793142,0
1180,0.04719999999999991,5.000378781950543,0.05471563975876172,-0.07115165644182689,0
1181,0.04723999999999995,5.000378781950543,0.05504442960785576,-0.07146581464636637,0
1182,0.04727999999999999,4.999392411494816,0.05504442960785576,-0.071451084566253,0
1183,0.04732000000000003,4.999063621342738,0.05471563975876172,-0.07110746647277814,0
1184,0.04736000000000007,5.000049991798719,0.05570200930641887,-0.0720789098831629,0
1185,0.04740000000000011,5.000049991798719,0.05504442960785576,-0.0714063064258934,0
1186,0.04743999999999993,5.001693942556992,0.05537321945707481,-0.07171997516650871,0
1187,0.04747999999999997,4.99972120164681,0.05635958900548195,-0.07269112652802778,0
1188,0.04752000000000001,4.99972120164681,0.05570200930641887,-0.07201823183547942,0
1189,0.04756000000000005,4.99972120164681,0.05635958900548195,-0.0726604000062186,0
1190,0.04760000000000009,5.000049991798719,0.05537321945707481,-0.07165852266647633,0
1191,0.047639999999999905,5.000378781950543,0.05570200930641887,-0.07197170873336765,0
1192,0.047679999999999945,5.000378781950543,0.05635958900548195,-0.07261358893081758,0
1193,0.047719999999999985,4.99972120164681,0.05537321945707481,-0.07161142443365484,0
1194,0.047760000000000025,4.999063621342738,0.05635958900548195,-0.07258190385823995,0
1195,0.047800000000000065,5.000049991798719,0.05635958900548195,-0.07256591883148314,0
1196,0.047840000000000105,4.99972120164681,0.05734595855501376,-0.07353620872350776,0
1197,0.04787999999999992,4.99972120164681,0.05734595855501376,-0.07352003470748492,0
1198,0.04791999999999996,5.000049991798719,0.05767474840510757,-0.07383255645532259,0
1199,0.04796,5.000378781950543,0.05603079915588792,-0.07217224528994103,0
1200,0.04800000000000004,4.999392411494816,0.05635958900548195,-0.07248457968183726,0
1201,0.04804000000000008,4.99972120164681,0.05603079915588792,-0.07213924110541933,0
1202,0.0480799999999999,5.000049991798719,0.05603079915588792,-0.0721225993819162,0
1203,0.04811999999999994,5.000049991798719,0.05603079915588792,-0.07210586493421528,0
1204,0.04815999999999998,5.000049991798719,0.05635958900548195,-0.07241782788442387,0
1205,0.04820000000000002,5.000049991798719,0.05603079915588792,-0.07207211895630247,0
1206,0.04824000000000006,5.000378781950543,0.05603079915588792,-0.07205510797120232,0
1207,0.0482800000000001,5.000707572102282,0.054058060060948765,-0.07006526625718329,0
1208,0.04831999999999992,4.998077250885994,0.05537321945707481,-0.07136323167286415,0
1209,0.04835999999999996,5.000049991798719,0.05471563975876172,-0.07068836690537368,0
1210,0.0484,5.000049991798719,0.05471563975876172,-0.07067099102011326,0
1211,0.04844000000000004,5.000378781950543,0.05570200930641887,-0.07163989413908943,0
1212,0.04848000000000008,5.000049991798719,0.05537321945707481,-0.07129354759031711,0
1213,0.0485199999999999,5.000049991798719,0.05635958900548195,-0.07226227044123021,0
1214,0.04855999999999994,5.000049991798719,0.05603079915588792,-0.0719157441687635,0
1215,0.04859999999999998,5.000378781950543,0.05570200930641887,-0.0715691284437334,0
1216,0.04864000000000002,5.002022732708393,0.05570200930641887,-0.07155121338817476,0
1217,0.04868000000000006,4.99972120164681,0.05537321945707481,-0.07120441957596331,0
1218,0.0487200000000001,5.000049991798719,0.05537321945707481,-0.07118632697847134,0
1219,0.048759999999999915,4.99972120164681,0.05570200930641887,-0.0714969358683759,0
1220,0.048799999999999955,5.000378781950543,0.05603079915588792,-0.07180745666912525,0
1221,0.048839999999999995,5.000049991798719,0.05504442960785576,-0.07080273025574825,0
1222,0.048880000000000035,5.000049991798719,0.05701716870504489,-0.07275702494360783,0
1223,0.048920000000000075,5.001365152405508,0.05570200930641887,-0.07142333386429055,0
1224,0.048960000000000115,5.000049991798719,0.056688378855200935,-0.07239108473362263,0
1225,0.04899999999999993,5.000707572102282,0.056688378855200935,-0.07237237932799435,0
1226,0.04903999999999997,5.000049991798719,0.056688378855200935,-0.07235358746874321,0
1227,0.04908000000000001,5.000049991798719,0.05570200930641887,-0.07134833987961497,0
1228,0.04912000000000005,5.000707572102282,0.05734595855501376,-0.07297332517926636,0
1229,0.04916000000000009,4.999392411494816,0.05701716870504489,-0.07262548574422165,0
1230,0.04919999999999991,5.000378781950543,0.05701716870504489,-0.07260635079544321,0
1231,0.04923999999999995,4.999392411494816,0.05734595855501376,-0.07291592060532313,0
1232,0.04927999999999999,5.000707572102282,0.056688378855200935,-0.07223903604646287,0
1233,0.04932000000000003,4.999392411494816,0.05701716870504489,-0.07254843649061019,0
1234,0.04936000000000007,5.000378781950543,0.05734595855501376,-0.07285775266049735,0
1235,0.04940000000000011,4.999392411494816,0.05734595855501376,-0.07283819497824699,0
1236,0.04943999999999993,5.000378781950543,0.05800353825532628,-0.07347613326630671,0
1237,0.04947999999999997,5.000049991798719,0.05800353825532628,-0.07345640839616505,0
1238,0.04952000000000001,5.001036362253937,0.05866111795613836,-0.07409418004100513,0
1239,0.04956000000000005,5.000378781950543,0.05800353825532628,-0.07341670937039162,0
1240,0.04960000000000009,5.000049991798719,0.05734595855501376,-0.07273915605838899,0
1241,0.049639999999999906,4.99972120164681,0.05603079915588792,-0.07140394067756259,0
1242,0.049679999999999946,5.000378781950543,0.05372927021222988,-0.06908227365400672,0
1243,0.049719999999999986,5.000378781950543,0.054058060060948765,-0.06939084359637634,0
1244,0.049760000000000026,5.001036362253937,0.05438684990979273,-0.06969933198409567,0
1245,0.049800000000000066,5.000378781950543,0.05438684990979273,-0.06967894923979956,0
1246,0.049840000000000106,5.000707572102282,0.05438684990979273,-0.06965848548386132,0
1247,0.049879999999999924,5.000049991798719,0.054058060060948765,-0.0693091511388893,0
1248,0.049919999999999964,4.99972120164681,0.05438684990979273,-0.06961731602278837,0
1249,0.049960000000000004,5.000049991798719,0.05504442960785576,-0.07025419055838064,0
1250,0.050000000000000044,5.000049991798719,0.054058060060948765,-0.06924703592268361,0
1251,0.050040000000000084,5.000378781950543,0.05570200930641887,-0.07087012042416412,0
1252,0.0500799999999999,5.000707572102282,0.05537321945707481,-0.0705203864466613,0
1253,0.05011999999999994,4.999392411494816,0.05438684990979273,-0.06951299365798996,0
1254,0.05015999999999998,5.000378781950543,0.05438684990979273,-0.06949189157421479,0
1255,0.05020000000000002,5.000049991798719,0.05372927021222988,-0.068813131221239,0
1256,0.05024000000000006,5.000378781950543,0.05438684990979273,-0.06944945196240052,0
1257,0.0502800000000001,5.000707572102282,0.054058060060948765,-0.06909932512671488,0
1258,0.05031999999999992,4.999392411494816,0.05307169051516736,-0.06809154083409594,0
1259,0.05035999999999996,5.000049991798719,0.05340048036363608,-0.0683988384460698,0
1260,0.0504,5.000049991798719,0.052414110818605225,-0.06739089944511707,0
1261,0.05044000000000004,5.000707572102282,0.052414110818605225,-0.06736925303988794,0
1262,0.05048000000000008,5.000378781950543,0.052414110818605225,-0.06734752995535856,0
1263,0.0505199999999999,4.99972120164681,0.05307169051516736,-0.06798331015798287,0
1264,0.05055999999999994,4.998406041038327,0.05044137173192248,-0.06533111574116593,0
1265,0.05059999999999998,5.001365152405508,0.05175653112254362,-0.06662432362823492,0
1266,0.05064000000000002,4.999063621342738,0.05044137173192248,-0.06528713713361331,0
1267,0.05068000000000006,5.001036362253937,0.04978379203736312,-0.0646074550040122,0
1268,0.0507200000000001,5.002351522859708,0.050770161579389975,-0.06557164704923607,0
1269,0.050759999999999916,4.997419670581074,0.04846863264974746,-0.06324786583018013,0
1270,0.050799999999999956,5.000707572102282,0.04781105295669137,-0.06256795932411935,0
1271,0.050839999999999996,4.999392411494816,0.045509524034943585,-0.06024402933466074,0
1272,0.050880000000000036,4.998406041038327,0.043865574808886185,-0.05857760505493516,0
1273,0.050920000000000076,5.000378781950543,0.041564045897676996,-0.05625352737271071,0
1274,0.050960000000000116,5.000378781950543,0.03597461856751347,-0.05064147782265435,0
1275,0.050999999999999934,5.000049991798719,0.03696098809372539,-0.051605151948422315,0
1276,0.051039999999999974,5.002351522859708,0.027097292882612076,-0.04171868842449501,0
1277,0.051080000000000014,5.000707572102282,0.02085028597429857,-0.03544884055903091,0
1278,0.051120000000000054,4.99972120164681,0.014932068945377922,-0.029507710196506484,0
1279,0.051160000000000094,5.000049991798719,0.009013851957515154,-0.02356650776631803,0
1280,0.05119999999999991,5.000378781950543,0.0021092655236763236,-0.016638864049008315,0
1281,0.05123999999999995,5.000049991798719,-0.0047953208540382625,-0.009711148814097542,0
1282,0.05127999999999999,5.001693942556992,-0.0113711173519455,-0.00311215215252951,0
1283,0.05132000000000003,5.000049991798719,-0.020248442542986647,0.00578844424153778,0
1284,0.05136000000000007,5.000049991798719,-0.028468188006913683,0.014031531680920861,0
1285,0.05140000000000011,5.000378781950543,-0.03734551301769716,0.022932269172820763,0
1286,0.05143999999999993,5.000378781950543,-0.044907678693494255,0.030517917568793324,0
1287,0.05147999999999997,5.000049991798719,-0.053456213722917104,0.03909000529101969,0
1288,0.05152000000000001,4.99972120164681,-0.060689589448612954,0.04634700341588882,0
1289,0.05156000000000005,5.000378781950543,-0.06792296511142272,0.053604070918158275,0
1290,0.05160000000000009,4.99972120164681,-0.07449876111382696,0.06020362793440226,0
1291,0.05163999999999991,4.999063621342738,-0.08140334686016236,0.06713204360323033,0
1292,0.05167999999999995,5.000378781950543,-0.08699277337447438,0.07274536868314208,0
1293,0.05171999999999999,5.000049991798719,-0.09258219985091413,0.07835876210292636,0
1294,0.05176000000000003,5.000707572102282,-0.09850041607873007,0.08430101338665455,0
1295,0.05180000000000007,5.000378781950543,-0.10441863226392899,0.09024333247534372,0
1296,0.05184000000000011,5.001036362253937,-0.11230958711109378,0.09815845780877616,0
1297,0.051879999999999926,5.001036362253937,-0.11724143385193893,0.10311454235405743,0
1298,0.051919999999999966,5.000049991798719,-0.12546117835382642,0.11135859171413387,0
1299,0.051960000000000006,4.99972120164681,-0.13137939434385165,0.1173011793518805,0
1300,0.052000000000000046,5.000049991798719,-0.13598245119521052,0.1219286743764702,0
1301,0.052040000000000086,5.000049991798719,-0.14321582619461398,0.12918655381079,0
1302,0.052079999999999904,4.99972120164681,-0.1468325136701073,0.13282781171926228,0
1303,0.052119999999999944,5.000378781950543,-0.15209314996923823,0.13811308418601498,0
1304,0.052159999999999984,5.000049991798719,-0.15472346810596177,0.1407681039617884,0
1305,0.052200000000000024,5.000378781950543,-0.15669620670288015,0.14276560940617725,0
1306,0.052240000000000064,4.99972120164681,-0.1583401555299606,0.1444343900263504,0
1307,0.052280000000000104,4.99972120164681,-0.15899773505985432,0.14511686603237148,0
1308,0.05231999999999992,5.000049991798719,-0.15636741693706202,0.14251150880636695,0
1309,0.05235999999999996,5.000049991798719,-0.15209314996923823,0.13826226689383225,0
1310,0.0524,5.000049991798719,-0.14453098527848057,0.13072519115492331,0
1311,0.05244000000000004,4.99972120164681,-0.13466729209748313,0.12088665056061154,0
1312,0.05248000000000008,5.000378781950543,-0.12151570100325589,0.10776027542640554,0
1313,0.0525199999999999,5.000049991798719,-0.10474742205074437,0.09101727554597264,0
1314,0.05255999999999994,5.000707572102282,-0.08534882440360501,0.07164401982191641,0
1315,0.05259999999999998,5.000049991798719,-0.06430627728788789,0.05062687721946134,0
1316,0.05264000000000002,5.000049991798719,-0.039975831521371616,0.02632189829578966,0
1317,0.05268000000000006,5.000049991798719,-0.0166317545134594,0.0030033501999392684,0
1318,0.0527200000000001,5.000049991798719,0.006054743479005864,-0.01965755707137913,0
1319,0.05275999999999992,5.000378781950543,0.028412452237539368,-0.041989613559577976,0
1320,0.05279999999999996,5.000378781950543,0.048139842803156765,-0.06169129056533328,0
1321,0.05284,5.000049991798719,0.0672096541121064,-0.08073532728431489,0
1322,0.05288000000000004,5.000378781950543,0.08266277737669843,-0.09616261518801368,0
1323,0.05292000000000008,5.000378781950543,0.09515679213113215,-0.10863073406956705,0
1324,0.052959999999999896,5.000378781950543,0.10534927798377816,-0.11879726379603912,0
1325,0.052999999999999936,5.000378781950543,0.11060991588943969,-0.12403188558068007,0
1326,0.053039999999999976,5.000707572102282,0.11389781459642795,-0.12729370842999926,0
1327,0.053080000000000016,5.000049991798719,0.11488418421091426,-0.12825394270811571,0
1328,0.053120000000000056,5.000049991798719,0.11159628550024885,-0.12493984944007501,0
1329,0.053160000000000096,5.000378781950543,0.10600685772026662,-0.11932416813915345,0
1330,0.053199999999999914,4.99972120164681,0.10008864010957542,-0.11337963830114456,0
1331,0.053239999999999954,5.000049991798719,0.09088252390559022,-0.10414715142039163,0
1332,0.053279999999999994,5.000378781950543,0.08069003822127407,-0.09392823686652693,0
1333,0.053320000000000034,5.000378781950543,0.07016876280110178,-0.08338047464043356,0
1334,0.053360000000000074,4.999392411494816,0.05898990780673173,-0.07217507515991549,0
1335,0.053400000000000114,5.000378781950543,0.050112581884580176,-0.06327114732726982,0
1336,0.05343999999999993,5.000378781950543,0.04090646620989019,-0.054038372573354136,0
1337,0.05347999999999997,5.000049991798719,0.0313715607935042,-0.04447675116435726,0
1338,0.05352000000000001,5.000378781950543,0.022823024993048696,-0.03590144271298232,0
1339,0.05356000000000005,5.000049991798719,0.015260858779241576,-0.02831244744475244,0
1340,0.05360000000000009,4.999392411494816,0.0076986926324629085,-0.020723396094579842,0
1341,0.05363999999999991,5.000049991798719,0.001780475694892425,-0.014778238058901598,0
1342,0.05367999999999995,5.000049991798719,-0.0031513717215847087,-0.009819393903583724,0
1343,0.05371999999999999,5.000378781950543,-0.00348016154833046,-0.00946355195096684,0
1344,0.05376000000000003,4.99972120164681,-0.00348016154833046,-0.00943644469148796,0
1345,0.05380000000000007,5.000049991798719,-0.0015074225859438989,-0.011382021513928961,0
1346,0.05384000000000011,5.000707572102282,0.006054743479005864,-0.0189169708113244,0
1347,0.05387999999999993,4.99972120164681,0.015918438447348998,-0.028753394637077524,0
1348,0.05391999999999997,4.99972120164681,0.0264397132059056,-0.039247344130295084,0
1349,0.05396000000000001,5.000378781950543,0.03959130683582415,-0.05237155862412418,0
1350,0.05400000000000005,5.000049991798719,0.05372927021222988,-0.06648208924539899,0
1351,0.05404000000000009,5.000378781950543,0.06556570484479929,-0.07829103775521357,0
1352,0.054079999999999906,4.99972120164681,0.07970366864523482,-0.09240146231639487,0
1353,0.054119999999999946,5.000378781950543,0.09154010363123893,-0.10421030519747532,0
1354,0.054159999999999986,5.000707572102282,0.1033765387772625,-0.11601909562343954,0
1355,0.054200000000000026,5.000049991798719,0.11324023485404966,-0.12585509461526792,0
1356,0.054240000000000066,5.000049991798719,0.12145998166897555,-0.1340470922302726,0
1357,0.054280000000000106,5.000707572102282,0.12737819942302714,-0.13993750891907702,0
1358,0.054319999999999924,5.000049991798719,0.1300085184375156,-0.14253997525232634,0
1359,0.054359999999999964,5.000378781950543,0.13231004758158987,-0.14481360034819976,0
1360,0.054400000000000004,5.000707572102282,0.13296762733813555,-0.14544322493830722,0
1361,0.054440000000000044,5.000049991798719,0.13066609819235642,-0.14311368975626912,0
1362,0.054480000000000084,5.000049991798719,0.12836456905254606,-0.14078410395848662,0
1363,0.0545199999999999,4.998077250885994,0.12540546016728232,-0.1377968880413347,0
1364,0.05455999999999994,5.000049991798719,0.12047361204714746,-0.13283688276288083,0
1365,0.05459999999999998,5.000378781950543,0.11718571331566852,-0.1295207769938238,0
1366,0.05464000000000002,4.99972120164681,0.11060991588943969,-0.1229167228976144,0
1367,0.05468000000000006,5.000378781950543,0.10436290837996715,-0.11664140933229844,0
1368,0.0547200000000001,4.99972120164681,0.09975985024348359,-0.11200999600032965,0
1369,0.05475999999999992,5.000049991798719,0.09351284281114798,-0.10573458447876775,0
1370,0.05479999999999996,4.998406041038327,0.08726583542335548,-0.09945912435358682,0
1371,0.05484,4.999392411494816,0.08101882808020172,-0.09318361587013793,0
1372,0.05488000000000004,4.99972120164681,0.07477182078178243,-0.08690805927344734,0
1373,0.05492000000000008,4.99972120164681,0.0672096541121064,-0.07931729539212808,0
1374,0.0549599999999999,5.000378781950543,0.06030506721035353,-0.07238406360963642,0
1375,0.05499999999999994,5.000049991798719,0.05438684990979273,-0.06643715400318839,0
1376,0.05503999999999998,5.000378781950543,0.045509524034943585,-0.057531088640920006,0
1377,0.05508000000000002,4.999063621342738,0.03893372714954513,-0.05092650532985468,0
1378,0.05512000000000006,5.001693942556992,0.03334429983648583,-0.045308244895831774,0
1379,0.0551600000000001,4.99972120164681,0.025782133529704057,-0.03771719901540542,0
1380,0.055199999999999916,5.000378781950543,0.018877546960101396,-0.03078368666175648,0
1381,0.055239999999999956,5.000378781950543,0.012630540111881347,-0.024507708061029726,0
1382,0.055279999999999996,5.000049991798719,0.005725953648695714,-0.017574104118478803,0
1383,0.055320000000000036,4.99972120164681,-0.0005210531030302584,-0.0112980344017901,0
1384,0.055360000000000076,5.000049991798719,-0.008412008934208556,-0.003377970360970581,0
1385,0.055400000000000116,5.003009103162085,-0.014330225759327644,0.0025693996778929362,0
1386,0.055439999999999934,5.000049991798719,-0.019590862902407788,0.007859234798590506,0
1387,0.055479999999999974,5.000049991798719,-0.025180289830972882,0.013477904228762494,0
1388,0.055520000000000014,5.000049991798719,-0.03208487598559902,0.020411777169449544,0
1389,0.055560000000000054,4.999392411494816,-0.035043984320212454,0.023400216335391827,0
1390,0.055600000000000094,5.000378781950543,-0.039975831521371616,0.028361438174312317,0
1391,0.05563999999999991,5.000049991798719,-0.04260615001678679,0.031021174875438012,0
1392,0.05567999999999995,5.000049991798719,-0.046551627744407784,0.03499611413858894,0
