,seconds,Trig,EMG_amplitude,EMG_amplitude_filter,peaks
0,0.0,5.000049991798719,0.02216544531962629,-0.025021444048469937,0
1,4.0000000000040004e-05,4.999063621342738,0.02216544531962629,-0.025068850005861364,0
2,8.000000000008001e-05,5.001036362253937,0.022823024993048696,-0.02577382329713003,0
3,0.00011999999999989797,5.001036362253937,0.022823024993048696,-0.02582120423807028,0
4,0.00015999999999993797,5.000707572102282,0.023809394504130166,-0.026854941675530652,0
5,0.00019999999999997797,5.000378781950543,0.023480604666976643,-0.02657350641224744,0
6,0.00024000000000001798,5.000378781950543,0.025124553854007567,-0.02826479648240361,0
7,0.000280000000000058,5.000378781950543,0.024138184341410046,-0.027325753823663278,0
8,0.000320000000000098,5.000049991798719,0.025124553854007567,-0.028359435822043123,0
9,0.00035999999999991594,5.001036362253937,0.025124553854007567,-0.02840673360066267,0
10,0.00039999999999995595,4.99972120164681,0.02676850304419573,-0.030097965522941292,0
11,0.00043999999999999595,4.99972120164681,0.0264397132059056,-0.02981644303057053,0
12,0.00048000000000003595,5.000049991798719,0.027426082721154613,-0.03085006416565277,0
13,0.000520000000000076,4.999392411494816,0.028412452237539368,-0.031883669235599266,0
14,0.0005599999999998939,5.000378781950543,0.028083662398618273,-0.03160209854351551,0
15,0.0005999999999999339,5.000378781950543,0.029398821755059465,-0.03296446029935186,0
16,0.0006399999999999739,4.99972120164681,0.029070031915759978,-0.032682855771025435,0
17,0.0006800000000000139,5.000707572102282,0.030056401434036775,-0.033716393170613916,0
18,0.0007200000000000539,4.99972120164681,0.0313715607935042,-0.035078702640235694,0
19,0.0007600000000000939,5.000378781950543,0.031700350633686175,-0.035454624477664815,0
20,0.0007999999999999119,5.000049991798719,0.030713981113518377,-0.03451536849983594,0
21,0.0008399999999999519,5.000049991798719,0.030385191273714543,-0.034233673405213425,0
22,0.0008799999999999919,4.99972120164681,0.030385191273714543,-0.03428074901074218,0
23,0.0009200000000000319,4.998734831190575,0.029727611594485073,-0.03367022545465117,0
24,0.0009600000000000719,5.000049991798719,0.028741242076586612,-0.032730892234523114,0
25,0.001000000000000112,5.000049991798719,0.029070031915759978,-0.03310669820288373,0
26,0.0010399999999999299,5.000378781950543,0.028741242076586612,-0.032824903980864815,0
27,0.0010799999999999699,4.99972120164681,0.027426082721154613,-0.03155671938687303,0
28,0.0011200000000000099,5.000378781950543,0.02676850304419573,-0.03094609327172969,0
29,0.0011600000000000499,5.000378781950543,0.0264397132059056,-0.030664235451493764,0
30,0.0012000000000000899,4.999063621342738,0.0264397132059056,-0.03071114558142645,0
31,0.0012399999999999078,5.000378781950543,0.025782133529704057,-0.03010045380245523,0
32,0.0012799999999999478,4.99972120164681,0.025782133529704057,-0.030147319122184442,0
33,0.0013199999999999878,5.000049991798719,0.025782133529704057,-0.03019416151939864,0
34,0.0013600000000000279,5.000378781950543,0.026110923367741706,-0.03056977048690929,0
35,0.0014000000000000679,5.000378781950543,0.025453343691792682,-0.029958986327256455,0
36,0.0014400000000001079,5.000707572102282,0.026110923367741706,-0.030663337560682565,0
37,0.0014799999999999258,5.000707572102282,0.0264397132059056,-0.031038874651658388,0
38,0.0015199999999999658,4.999063621342738,0.0264397132059056,-0.031085597253758125,0
39,0.0015600000000000058,5.000378781950543,0.0264397132059056,-0.031132294858900577,0
40,0.0016000000000000458,5.000049991798719,0.025453343691792682,-0.030192597606532545,0
41,0.0016400000000000858,5.000049991798719,0.026110923367741706,-0.030896823854196342,0
42,0.0016799999999999038,5.000049991798719,0.02676850304419573,-0.03160102406551304,0
43,0.0017199999999999438,5.000378781950543,0.02676850304419573,-0.031647618216515044,0
44,0.0017599999999999838,4.99972120164681,0.0264397132059056,-0.031365395798174024,0
45,0.0018000000000000238,5.001693942556992,0.027097292882612076,-0.032069515816403646,0
46,0.0018400000000000638,5.000049991798719,0.0264397132059056,-0.03145844905524339,0
47,0.0018800000000001038,5.000049991798719,0.0264397132059056,-0.03150493419708663,0
48,0.0019199999999999218,4.99972120164681,0.025782133529704057,-0.030893811541127084,0
49,0.0019599999999999618,5.000049991798719,0.027426082721154613,-0.03258418928315085,0
50,0.0020000000000000018,5.000049991798719,0.027426082721154613,-0.03263058901582132,0
51,0.0020400000000000418,4.999063621342738,0.027097292882612076,-0.03234816974364909,0
52,0.002080000000000082,4.99972120164681,0.027754872559823354,-0.03305209047237259,0
53,0.0021199999999998997,5.000378781950543,0.028412452237539368,-0.033755981338027256,0
54,0.0021599999999999397,5.000049991798719,0.027426082721154613,-0.032815892797137515,0
55,0.0021999999999999797,5.000049991798719,0.02676850304419573,-0.032204563534208225,0
56,0.0022400000000000198,5.000378781950543,0.025782133529704057,-0.031264413523110206,0
57,0.0022800000000000598,5.000707572102282,0.025782133529704057,-0.03131060176655157,0
58,0.0023200000000000998,5.000378781950543,0.024795764016348754,-0.030370388887226166,0
59,0.0023599999999999177,5.000049991798719,0.023480604666976643,-0.029101354212873482,0
60,0.0023999999999999577,5.000707572102282,0.02315181482994949,-0.028818656742119458,0
61,0.0024399999999999977,4.99972120164681,0.02117907581044083,-0.026891977430268006,0
62,0.0024800000000000377,5.000049991798719,0.019863916466630674,-0.025622844785498665,0
63,0.0025200000000000777,5.000049991798719,0.018548757124844717,-0.02435367878400881,0
64,0.0025599999999998957,5.000707572102282,0.01821996728971463,-0.024070848580176864,0
65,0.0025999999999999357,5.000049991798719,0.01756238761983417,-0.023459194482221415,0
66,0.0026399999999999757,5.000049991798719,0.016247228281592724,-0.022189926306037708,0
67,0.0026800000000000157,5.000049991798719,0.014932068945377922,-0.020920623371403272,0
68,0.0027200000000000557,4.99972120164681,0.015589648613231935,-0.021624024329637212,0
69,0.0027600000000000957,4.99972120164681,0.014274489278030808,-0.020354650822782573,0
70,0.0027999999999999137,4.99972120164681,0.01328811977796078,-0.0194140313380856,0
71,0.0028399999999999537,5.000049991798719,0.013945699444547363,-0.02011732485602784,0
72,0.0028799999999999937,4.99972120164681,0.013945699444547363,-0.02016300219222121,0
73,0.0029200000000000337,5.000049991798719,0.014932068945377922,-0.021195012162840036,0
74,0.0029600000000000737,5.001693942556992,0.015260858779241576,-0.021569405248749157,0
75,0.0029999999999998916,5.000049991798719,0.014932068945377922,-0.02128618109775865,0
76,0.0030399999999999316,5.000378781950543,0.015589648613231935,-0.0219892885277952,0
77,0.0030799999999999716,5.000378781950543,0.015918438447348998,-0.022363567851800204,0
78,0.0031200000000000117,5.000049991798719,0.016576018115963126,-0.023066598386321045,0
79,0.0031600000000000517,4.99972120164681,0.017233597785083862,-0.023769589945601056,0
80,0.0032000000000000917,5.000378781950543,0.01756238761983417,-0.024143752342920474,0
81,0.0032399999999999096,4.999392411494816,0.01821996728971463,-0.02484666489586372,0
82,0.0032799999999999496,4.99972120164681,0.01789117745471111,-0.024563167912430156,0
83,0.0033199999999999896,5.000049991798719,0.016576018115963126,-0.023293261041705534,0
84,0.0033600000000000296,5.000049991798719,0.017233597785083862,-0.02399605244318508,0
85,0.0034000000000000696,5.000378781950543,0.01821996728971463,-0.025027592592331057,0
86,0.0034400000000001096,5.000049991798719,0.01821996728971463,-0.025072721796765642,0
87,0.0034799999999999276,5.000049991798719,0.018877546960101396,-0.025775388879214503,0
88,0.0035199999999999676,5.000049991798719,0.018548757124844717,-0.02549164431130381,0
89,0.0035600000000000076,4.998077250885994,0.018548757124844717,-0.025536647081541446,0
90,0.0036000000000000476,5.000049991798719,0.01821996728971463,-0.025252817167102898,0
91,0.0036400000000000876,5.000378781950543,0.01821996728971463,-0.0252977338857682,0
92,0.0036799999999999056,5.000049991798719,0.01789117745471111,-0.02501381721488428,0
93,0.0037199999999999456,4.999392411494816,0.016904807950460177,-0.02407227696765158,0
94,0.0037599999999999856,5.000378781950543,0.016576018115963126,-0.02378827213048265,0
95,0.0038000000000000256,4.99972120164681,0.01756238761983417,-0.024819382019372997,0
96,0.0038400000000000656,5.001036362253937,0.016576018115963126,-0.023877707935566882,0
97,0.0038800000000001056,4.99972120164681,0.015589648613231935,-0.022935988535277,0
98,0.0039199999999999235,5.000049991798719,0.015918438447348998,-0.02330938280152197,0
99,0.0039599999999999635,5.000049991798719,0.015260858779241576,-0.022696361542521918,0
100,0.0040000000000000036,5.000707572102282,0.016247228281592724,-0.023727243078238563,0
101,0.0040400000000000436,5.000378781950543,0.015589648613231935,-0.023114128714769023,0
102,0.0040800000000000836,5.000378781950543,0.015918438447348998,-0.02348733677256281,0
103,0.0041199999999999015,5.000707572102282,0.016247228281592724,-0.023860497396523725,0
104,0.0041599999999999415,4.999063621342738,0.01789117745471111,-0.02554876957265318,0
105,0.0041999999999999815,5.000049991798719,0.01756238761983417,-0.025264254601336238,0
106,0.0042400000000000215,4.99972120164681,0.01789117745471111,-0.025637270807581936,0
107,0.0042800000000000615,4.999392411494816,0.019206336795484613,-0.026996607674800763,0
108,0.0043200000000001015,4.99972120164681,0.019863916466630674,-0.027698315674747714,0
109,0.0043599999999999195,5.000378781950543,0.019206336795484613,-0.02708481478205148,0
110,0.0043999999999999595,5.000049991798719,0.019863916466630674,-0.027786423328607212,0
111,0.0044399999999999995,5.000707572102282,0.02019270630239349,-0.02815919178407115,0
112,0.0044800000000000395,5.000049991798719,0.02117907581044083,-0.029189489303466605,0
113,0.0045200000000000795,4.99972120164681,0.02085028597429857,-0.028904576517702164,0
114,0.0045599999999998975,5.000049991798719,0.02117907581044083,-0.029277192090665035,0
115,0.0045999999999999375,5.000378781950543,0.02019270630239349,-0.02833459665332781,0
116,0.0046399999999999775,5.000049991798719,0.019863916466630674,-0.02804952886964823,0
117,0.0046800000000000175,4.99972120164681,0.02019270630239349,-0.02842198838639114,0
118,0.0047200000000000575,5.001693942556992,0.018877546960101396,-0.027150446001543083,0
119,0.0047600000000000975,5.000049991798719,0.01789117745471111,-0.026207640377674462,0
120,0.0047999999999999154,5.000378781950543,0.016247228281592724,-0.024607201657818878,0
121,0.0048399999999999554,4.99972120164681,0.01295932994485767,-0.021362759993804346,0
122,0.0048799999999999955,5.000049991798719,0.011972960446309217,-0.020419793035207044,0
123,0.0049200000000000355,4.99972120164681,0.009013851957515154,-0.017504032601427286,0
124,0.0049600000000000755,5.001036362253937,0.006383533309443135,-0.01491700717132811,0
125,0.004999999999999893,4.999392411494816,0.004410794328726292,-0.012987506219504147,0
126,0.005039999999999933,4.998406041038327,0.001780475694892425,-0.010400370073514058,0
127,0.005079999999999973,5.000378781950543,-0.0015074225859438989,-0.007155598387575859,0
128,0.005120000000000013,4.99972120164681,-0.00348016154833046,-0.005225929775321075,0
129,0.005160000000000053,4.99972120164681,-0.005452900506126915,-0.0032962045711485005,0
130,0.0052000000000000934,4.99972120164681,-0.005781690331979852,-0.0030103715507524068,0
131,0.005239999999999911,5.000378781950543,-0.006439269983302923,-0.002395691405145676,0
132,0.005279999999999951,4.999392411494816,-0.007096849634115457,-0.001780953608824517,0
133,0.005319999999999991,5.000707572102282,-0.005781690331979852,-0.0031388967628343707,0
134,0.005360000000000031,5.001036362253937,-0.004466531027802631,-0.0044967815649721715,0
135,0.005400000000000071,4.998406041038327,-0.0015074225859438989,-0.0074985567996801936,0
136,0.005440000000000111,5.000378781950543,-0.0031513717215847087,-0.00589721540068203,0
137,0.005479999999999929,5.000049991798719,-0.0005210531030302584,-0.008570082348682694,0
138,0.005519999999999969,5.000378781950543,0.0007941062093044515,-0.009927730232386304,0
139,0.005560000000000009,5.000049991798719,0.003753214669504526,-0.01292926715510929,0
140,0.005600000000000049,5.000049991798719,0.004410794328726292,-0.013629214817354834,0
141,0.005640000000000089,4.99972120164681,0.006712323140007484,-0.01597305082162637,0
142,0.005679999999999907,5.000378781950543,0.008356272294735026,-0.01765924600889871,0
143,0.005719999999999947,5.000378781950543,0.011315380781244458,-0.020660539017220807,0
144,0.005759999999999987,5.001036362253937,0.013945699444547363,-0.023332980341446482,0
145,0.005800000000000027,5.000049991798719,0.015918438447348998,-0.02534777979425541,0
146,0.005840000000000067,5.000049991798719,0.019863916466630674,-0.029335255702738833,0
147,0.005880000000000107,4.99972120164681,0.022494235156274286,-0.032007509371027455,0
148,0.005919999999999925,5.000049991798719,0.024795764016348754,-0.03435090994958118,0
149,0.005959999999999965,5.000049991798719,0.028412452237539368,-0.03800940627962187,0
150,0.006000000000000005,4.99972120164681,0.03202914047399413,-0.04166783866598292,0
151,0.006040000000000045,5.000049991798719,0.034988249042434,-0.04466862707622288,0
152,0.006080000000000085,4.999392411494816,0.03893372714954513,-0.04865572036802106,0
153,0.006119999999999903,5.000049991798719,0.04189283574175878,-0.05165637913896086,0
154,0.006159999999999943,4.99972120164681,0.045509524034943585,-0.055314552256225336,0
155,0.006199999999999983,5.000378781950543,0.04945500219027131,-0.059301449532466355,0
156,0.006240000000000023,5.000049991798719,0.05175653112254362,-0.061644331534134636,0
157,0.006280000000000063,5.000049991798719,0.05537321945707481,-0.06530230653836583,0
158,0.006320000000000103,4.99972120164681,0.05931869765744993,-0.06928900466074189,0
159,0.006359999999999921,5.000378781950543,0.06162022661597208,-0.07163168644574185,0
160,0.006399999999999961,5.000378781950543,0.06523691499171154,-0.07528946020479428,0
161,0.006440000000000001,5.000707572102282,0.06852481352819326,-0.0786183763339682,0
162,0.006480000000000041,5.000378781950543,0.07115513236633955,-0.08128964462691893,0
163,0.006520000000000081,5.000049991798719,0.07444303092521187,-0.08461842415563336,0
164,0.006559999999999899,5.000378781950543,0.07411424106876553,-0.08433044643718818,0
165,0.006599999999999939,5.000378781950543,0.07477182078178243,-0.08502876910968611,0
166,0.006639999999999979,4.99972120164681,0.0731278715001718,-0.08342549326256021,0
167,0.006680000000000019,5.000378781950543,0.06983997294627126,-0.0801781982718781,0
168,0.006720000000000059,4.999392411494816,0.06556570484479929,-0.07594446351629808,0
169,0.006760000000000099,5.000707572102282,0.06293538602358648,-0.07335460747780373,0
170,0.006799999999999917,5.002022732708393,0.05603079915588792,-0.06649041248401978,0
171,0.006839999999999957,5.001693942556992,0.05340048036363608,-0.06390041431146837,0
172,0.006879999999999997,4.99972120164681,0.050770161579389975,-0.0613103445475216,0
173,0.006920000000000037,4.999063621342738,0.044851944344144246,-0.05543230438821388,0
174,0.006960000000000077,4.999392411494816,0.04353678496405114,-0.05415724979496715,0
175,0.006999999999999895,5.001036362253937,0.03597461856751347,-0.04663511555168735,0
176,0.007039999999999935,4.999063621342738,0.03597461856751347,-0.04667507472709659,0
177,0.007079999999999975,5.001693942556992,0.028083662398618273,-0.03882400441174195,0
178,0.007120000000000015,5.002680313010939,0.025782133529704057,-0.036562287730722946,0
179,0.007160000000000055,4.999063621342738,0.023480604666976643,-0.034300497046715596,0
180,0.007200000000000095,5.004653053916539,0.019863916466630674,-0.030723472672634936,0
181,0.007239999999999913,5.001365152405508,0.02019270630239349,-0.031091851639182357,0
182,0.007279999999999953,4.998406041038327,0.02085028597429857,-0.03178894540362245,0
183,0.007319999999999993,5.000049991798719,0.019863916466630674,-0.03084201460773152,0
184,0.007360000000000033,4.999392411494816,0.019863916466630674,-0.030881377596505877,0
185,0.007400000000000073,4.998406041038327,0.02085028597429857,-0.03190703402796824,0
186,0.007440000000000113,5.000049991798719,0.02085028597429857,-0.031946244545076205,0
187,0.007479999999999931,5.000378781950543,0.021836655483104705,-0.03297174782287128,0
188,0.007519999999999971,4.99972120164681,0.02216544531962629,-0.033339594339107756,0
189,0.007560000000000011,4.99972120164681,0.023809394504130166,-0.03502252277317829,0
190,0.007600000000000051,4.99972120164681,0.024466974178816228,-0.03571900392669288,0
191,0.007640000000000091,5.000707572102282,0.024138184341410046,-0.03542903745707485,0
192,0.007679999999999909,5.000378781950543,0.025124553854007567,-0.036454151886408964,0
193,0.007719999999999949,5.000049991798719,0.024795764016348754,-0.03616402817471853,0
194,0.007759999999999989,4.99972120164681,0.024466974178816228,-0.035873825332967464,0
195,0.007800000000000029,4.99972120164681,0.023480604666976643,-0.034925963347605095,0
196,0.00784000000000007,5.000707572102282,0.025124553854007567,-0.03660834025299642,0
197,0.00788000000000011,5.000378781950543,0.025453343691792682,-0.036975477662520656,0
198,0.007919999999999927,4.99972120164681,0.0264397132059056,-0.03800011426355858,0
199,0.007959999999999967,5.000049991798719,0.025782133529704057,-0.03738072085159012,0
200,0.008000000000000007,5.002351522859708,0.02676850304419573,-0.03840519547006366,0
201,0.008040000000000047,5.000049991798719,0.027426082721154613,-0.039100798753515846,0
202,0.008080000000000087,4.999392411494816,0.02676850304419573,-0.03848116084864971,0
203,0.008119999999999905,4.99972120164681,0.02676850304419573,-0.038519020449758745,0
204,0.008159999999999945,5.000378781950543,0.028741242076586612,-0.040529536576024046,0
205,0.008199999999999985,5.000378781950543,0.028083662398618273,-0.0399096511487803,0
206,0.008240000000000025,4.999392411494816,0.027754872559823354,-0.03961847238198402,0
207,0.008280000000000065,4.998406041038327,0.028412452237539368,-0.04031357961773914,0
208,0.008320000000000105,5.000707572102282,0.028412452237539368,-0.04035102332693113,0
209,0.008359999999999923,5.000707572102282,0.028412452237539368,-0.04038838285273782,0
210,0.008399999999999963,5.000378781950543,0.028412452237539368,-0.04042565786097392,0
211,0.008440000000000003,5.000378781950543,0.027754872559823354,-0.03980526834009442,0
212,0.008480000000000043,5.000049991798719,0.029070031915759978,-0.04115753266799869,0
213,0.008520000000000083,5.000049991798719,0.027426082721154613,-0.039550602927385936,0
214,0.008559999999999901,5.000707572102282,0.028083662398618273,-0.04024511620812761,0
215,0.008599999999999941,5.000378781950543,0.028412452237539368,-0.04061075346724258,0
216,0.008639999999999981,5.000049991798719,0.028412452237539368,-0.04064751437235626,0
217,0.008680000000000021,4.99972120164681,0.028412452237539368,-0.040684188430770596,0
218,0.008720000000000061,5.000378781950543,0.030056401434036775,-0.04236472450774415,0
219,0.008760000000000101,4.99972120164681,0.029070031915759978,-0.04141485436115021,0
220,0.008799999999999919,5.000049991798719,0.029070031915759978,-0.04145126589357178,0
221,0.008839999999999959,5.001036362253937,0.029398821755059465,-0.041816379095954204,0
222,0.008879999999999999,5.000378781950543,0.030056401434036775,-0.04251019363899255,0
223,0.008920000000000039,5.000378781950543,0.031700350633686175,-0.044190288874395356,0
224,0.008960000000000079,4.99972120164681,0.0323579303144281,-0.04488392543369842,0
225,0.008999999999999897,4.99972120164681,0.03268672015498804,-0.04524868266714714,0
226,0.009039999999999937,4.99972120164681,0.031700350633686175,-0.044298190724989625,0
227,0.009079999999999977,5.000049991798719,0.03268672015498804,-0.04532034768403079,0
228,0.009120000000000017,5.000378781950543,0.0323579303144281,-0.045027254812559356,0
229,0.009160000000000057,4.998077250885994,0.03202914047399413,-0.04473407114573567,0
230,0.009200000000000097,4.99972120164681,0.030713981113518377,-0.04345442683698625,0
231,0.009239999999999915,5.000378781950543,0.030713981113518377,-0.043489850440848084,0
232,0.009279999999999955,5.000049991798719,0.029070031915759978,-0.041881233073535085,0
233,0.009319999999999995,5.000049991798719,0.028083662398618273,-0.040930103288302544,0
234,0.009360000000000035,4.999392411494816,0.02676850304419573,-0.039650091242568714,0
235,0.009400000000000075,5.000378781950543,0.0264397132059056,-0.039356355965501556,0
236,0.009439999999999893,4.997748460733576,0.025124553854007567,-0.038076158103557876,0
237,0.009479999999999933,5.000378781950543,0.023480604666976643,-0.03646707701185569,0
238,0.009519999999999973,4.99972120164681,0.022823024993048696,-0.03584427171572316,0
239,0.009560000000000013,5.000707572102282,0.021507865646709548,-0.03456379270719114,0
240,0.009600000000000053,5.000707572102282,0.019863916466630674,-0.03295442950293236,0
241,0.009640000000000093,5.000378781950543,0.02019270630239349,-0.033317710630989185,0
242,0.009679999999999911,5.000378781950543,0.01821996728971463,-0.031379367906002355,0
243,0.009719999999999951,5.000707572102282,0.01789117745471111,-0.031084879033479604,0
244,0.009759999999999991,5.001036362253937,0.017233597785083862,-0.030461504680982653,0
245,0.009800000000000031,5.000707572102282,0.015918438447348998,-0.0291804546953619,0
246,0.009840000000000071,4.999063621342738,0.015918438447348998,-0.029214467763271086,0
247,0.009880000000000111,4.99972120164681,0.014932068945377922,-0.028262014726295963,0
248,0.009919999999999929,4.99972120164681,0.013616909611190692,-0.026980674935967026,0
249,0.009959999999999969,4.99972120164681,0.01295932994485767,-0.026356817574617518,0
250,0.010000000000000009,4.99972120164681,0.011315380781244458,-0.024746493159866646,0
251,0.010040000000000049,5.002351522859708,0.011315380781244458,-0.02478002003585558,0
252,0.010080000000000089,4.99972120164681,0.010000221452637598,-0.0234982893941096,0
253,0.010119999999999907,4.99972120164681,0.008685062126061585,-0.022216460249512782,0
254,0.010159999999999947,5.000378781950543,0.008685062126061585,-0.022249691611361,0
255,0.010199999999999987,4.99972120164681,0.008027482463535476,-0.02162524417581061,0
256,0.010240000000000027,5.000378781950543,0.007041112970698912,-0.020671907460846933,0
257,0.010280000000000067,5.000049991798719,0.006712323140007484,-0.02037605064520984,0
258,0.010320000000000107,5.000378781950543,0.006383533309443135,-0.020080093753683553,0
259,0.010359999999999925,5.000049991798719,0.004739584158527918,-0.01846887715311383,0
260,0.010399999999999965,4.99972120164681,0.003424424840084442,-0.017186349684171837,0
261,0.010440000000000005,5.000707572102282,0.0014516858662357995,-0.015246141547357525,0
262,0.010480000000000045,5.000378781950543,0.0030956350107915753,-0.016922520205389036,0
263,0.010520000000000085,4.999392411494816,0.001780475694892425,-0.015639688768850753,0
264,0.010559999999999903,5.000707572102282,-0.00019226327513760522,-0.013699175734049027,0
265,0.010599999999999943,5.000049991798719,0.00013652655288240445,-0.014060089243689136,0
266,0.010639999999999983,4.999392411494816,-0.0018362124133269458,-0.012119371396561468,0
267,0.010680000000000023,5.000378781950543,-0.0024937920677107622,-0.011493709990339548,0
268,0.010720000000000063,5.000049991798719,-0.0024937920677107622,-0.011525525059752427,0
269,0.010760000000000103,5.000049991798719,-0.0031513717215847087,-0.010899656989268668,0
270,0.01079999999999992,5.000378781950543,-0.0031513717215847087,-0.010931264779921436,0
271,0.01083999999999996,5.000049991798719,-0.004466531027802631,-0.009647609165466583,0
272,0.01088,5.000378781950543,-0.005452900506126915,-0.008692638974429245,0
273,0.01092000000000004,5.001693942556992,-0.006439269983302923,-0.007737564075046905,0
274,0.01096000000000008,5.000707572102282,-0.006110480157705198,-0.008097543464500513,0
275,0.010999999999999899,5.000049991798719,-0.007754429284417372,-0.0064846785838379925,0
276,0.011039999999999939,4.99972120164681,-0.00808321910937683,-0.006186867383832992,0
277,0.011079999999999979,5.000049991798719,-0.008412008934208556,-0.005888950260154402,0
278,0.011120000000000019,4.99972120164681,-0.007754429284417372,-0.006577296385177588,0
279,0.011160000000000059,4.999392411494816,-0.008412008934208556,-0.005950376683167211,0
280,0.011200000000000099,5.000378781950543,-0.010055958056451306,-0.0043369806803170985,0
281,0.011239999999999917,5.001693942556992,-0.00939837840793746,-0.005025006319495005,0
282,0.011279999999999957,5.000049991798719,-0.00939837840793746,-0.005055344881690134,0
283,0.011319999999999997,5.000378781950543,-0.010384747880516562,-0.004099206243700283,0
284,0.011360000000000037,5.000049991798719,-0.009727168232258263,-0.004786908700411874,0
285,0.011400000000000077,5.000378781950543,-0.009727168232258263,-0.004816923184809373,0
286,0.011439999999999895,5.000049991798719,-0.010055958056451306,-0.004518039223651911,0
287,0.011479999999999935,4.999392411494816,-0.0090695885834889,-0.00553420564159899,0
288,0.011519999999999975,4.998734831190575,-0.0090695885834889,-0.005563893372464251,0
289,0.011560000000000015,5.000049991798719,-0.0090695885834889,-0.00559347159376547,0
290,0.011600000000000055,5.000049991798719,-0.00808321910937683,-0.006609309484797311,0
291,0.011640000000000095,5.001036362253937,-0.007754429284417372,-0.006967457628108277,0
292,0.011679999999999913,4.99972120164681,-0.007096849634115457,-0.007654285204640628,0
293,0.011719999999999953,5.000049991798719,-0.007096849634115457,-0.007683422445834608,0
294,0.011759999999999993,5.000049991798719,-0.007425639459330238,-0.00738365888450275,0
295,0.011800000000000033,4.99972120164681,-0.006439269983302923,-0.008398943355471481,0
296,0.011840000000000073,5.000378781950543,-0.007096849634115457,-0.007770167139675925,0
297,0.011880000000000113,5.000378781950543,-0.007096849634115457,-0.00779885872443644,0
298,0.01191999999999993,5.000049991798719,-0.007754429284417372,-0.007169858518960796,0
299,0.01195999999999997,5.000049991798719,-0.007096849634115457,-0.007855905185134581,0
300,0.01200000000000001,5.000049991798719,-0.007425639459330238,-0.007555469658478097,0
301,0.01204000000000005,5.000378781950543,-0.007096849634115457,-0.007912500777242724,0
302,0.01208000000000009,5.000378781950543,-0.00939837840793746,-0.005639100004934922,0
303,0.012119999999999909,5.000378781950543,-0.00874079875891258,-0.006324694077082204,0
304,0.012159999999999949,4.99972120164681,-0.00939837840793746,-0.005695014987106131,0
305,0.012199999999999989,5.000049991798719,-0.00874079875891258,-0.006380381046102144,0
306,0.012240000000000029,5.000378781950543,-0.00939837840793746,-0.005750473373647685,0
307,0.012280000000000069,5.000049991798719,-0.010055958056451306,-0.005120450984664949,0
308,0.012320000000000109,4.99972120164681,-0.009727168232258263,-0.005476683068398918,0
309,0.012359999999999927,5.000049991798719,-0.0113711173519455,-0.0038600609260026446,0
310,0.012399999999999967,4.997419670581074,-0.0113711173519455,-0.0038872723394783246,0
311,0.012440000000000007,5.000707572102282,-0.00939837840793746,-0.005887106852279299,0
312,0.012480000000000047,5.000049991798719,-0.011042327528263687,-0.004270137175896999,0
313,0.012520000000000087,5.000049991798719,-0.009727168232258263,-0.005612159511535625,0
314,0.012559999999999905,5.000378781950543,-0.010384747880516562,-0.004981326219845927,0
315,0.012599999999999945,4.999063621342738,-0.010384747880516562,-0.005007955615307171,0
316,0.012639999999999985,4.99972120164681,-0.010384747880516562,-0.005034467772332782,0
317,0.012680000000000025,4.997419670581074,-0.00939837840793746,-0.006047231886891373,0
318,0.012720000000000065,4.999392411494816,-0.010055958056451306,-0.005415929089421508,0
319,0.012760000000000105,4.99972120164681,-0.0090695885834889,-0.0064284573473273945,0
320,0.012799999999999923,5.000049991798719,-0.0090695885834889,-0.006454497791733134,0
321,0.012839999999999963,5.000049991798719,-0.0090695885834889,-0.006480419621894905,0
322,0.012880000000000003,5.000378781950543,-0.00874079875891258,-0.006835012389417135,0
323,0.012920000000000043,5.000378781950543,-0.00808321910937683,-0.007518275822448659,0
324,0.012960000000000083,5.000707572102282,-0.007754429284417372,-0.007872629999960357,0
325,0.0129999999999999,4.999392411494816,-0.007425639459330238,-0.008226864475906929,0
326,0.01303999999999994,5.000049991798719,-0.008412008934208556,-0.007265819680193422,0
327,0.01307999999999998,5.000049991798719,-0.007754429284417372,-0.007948603768203673,0
328,0.01312000000000002,4.99972120164681,-0.008412008934208556,-0.007316108047188689,0
329,0.01316000000000006,4.99972120164681,-0.0090695885834889,-0.006683491549501819,0
330,0.0132000000000001,5.000049991798719,-0.007754429284417372,-0.008023492956004782,0
331,0.013239999999999919,5.000049991798719,-0.008412008934208556,-0.007390634103267488,0
332,0.013279999999999959,5.002680313010939,-0.008412008934208556,-0.007415233324495396,0
333,0.013319999999999999,4.99972120164681,-0.00874079875891258,-0.007110920880515157,0
334,0.013360000000000039,5.000707572102282,-0.010384747880516562,-0.00549132703522626,0
335,0.013400000000000079,5.000707572102282,-0.00939837840793746,-0.006501929416583969,0
336,0.013439999999999896,4.999392411494816,-0.008412008934208556,-0.007512409169207264,0
337,0.013479999999999936,4.99972120164681,-0.008412008934208556,-0.007536396556653002,0
338,0.013519999999999976,4.99972120164681,-0.00874079875891258,-0.007231470967168155,0
339,0.013560000000000016,4.998734831190575,-0.009727168232258263,-0.006268842316826926,0
340,0.013600000000000056,5.000707572102282,-0.00874079875891258,-0.007278828941767131,0
341,0.013640000000000096,5.000378781950543,-0.009727168232258263,-0.006315952690206999,0
342,0.013679999999999914,5.000378781950543,-0.010713537704454032,-0.005352952252388184,0
343,0.013719999999999954,4.99972120164681,-0.010713537704454032,-0.0053761968425595635,0
344,0.013759999999999994,5.000378781950543,-0.011042327528263687,-0.005070526908724563,0
345,0.013800000000000034,4.999392411494816,-0.012357486822223915,-0.0037783625493601654,0
346,0.013840000000000074,5.000049991798719,-0.012357486822223915,-0.003801232274207301,0
347,0.013879999999999892,4.998734831190575,-0.012357486822223915,-0.0038239765357513077,0
348,0.013919999999999932,5.000049991798719,-0.012686276645394332,-0.0035178052580859993,0
349,0.013959999999999972,5.000378781950543,-0.01301506646843685,-0.003211508012595749,0
350,0.014000000000000012,5.000049991798719,-0.01301506646843685,-0.0032338743711062615,0
351,0.014040000000000052,5.000049991798719,-0.013672646114138112,-0.002598534614613117,0
352,0.014080000000000092,4.99972120164681,-0.013672646114138112,-0.0026206477850896012,0
353,0.01411999999999991,5.000049991798719,-0.014001435936796827,-0.0023138441655810964,0
354,0.01415999999999995,5.000049991798719,-0.013672646114138112,-0.002664492976306873,0
355,0.01419999999999999,5.000049991798719,-0.014001435936796827,-0.002357434679716105,0
356,0.01424000000000003,5.000707572102282,-0.014330225759327644,-0.0020502486751822688,0
357,0.01428000000000007,5.000049991798719,-0.014987805404005308,-0.0014141448952059987,0
358,0.01432000000000011,5.000049991798719,-0.01564538504817102,-0.0007779129180718394,0
359,0.014359999999999928,5.000049991798719,-0.01564538504817102,-0.0007991321439128202,0
360,0.014399999999999968,4.99972120164681,-0.01597417487006185,-0.0004914328640082781,0
361,0.014440000000000008,4.999392411494816,-0.0166317545134594,0.00014518516306206986,0
362,0.014480000000000048,5.001693942556992,-0.01630296469182467,-0.0002044371082992151,0
363,0.014520000000000088,5.000378781950543,-0.017946913798717698,0.001418808955543461,0
364,0.014559999999999906,5.000378781950543,-0.017946913798717698,0.0013982355583757877,0
365,0.014599999999999946,4.99972120164681,-0.017289334156344746,0.0007202124030521243,0
366,0.014639999999999986,5.000049991798719,-0.017618123977595282,0.0010286888330278757,0
367,0.014680000000000026,4.99972120164681,-0.017946913798717698,0.0013372956211319433,0
368,0.014720000000000066,4.99972120164681,-0.017618123977595282,0.0009884533609465854,0
369,0.014760000000000106,4.998734831190575,-0.01696054433496612,0.0003109521080241866,0
370,0.014799999999999924,4.99972120164681,-0.01696054433496612,0.00029116156042721317,0
371,0.014839999999999964,4.999392411494816,-0.017618123977595282,0.0009290819511913982,0
372,0.014880000000000004,5.000707572102282,-0.017946913798717698,0.0012383440483226225,0
373,0.014920000000000044,5.000378781950543,-0.018275703619711994,0.0015477379044443011,0
374,0.014960000000000084,5.000378781950543,-0.01860449344057817,0.0018572637499011078,0
375,0.014999999999999902,5.000049991798719,-0.018933283261316228,0.0021669218141345363,0
376,0.015039999999999942,5.000378781950543,-0.018275703619711994,0.0014903428634656362,0
377,0.015079999999999982,4.99972120164681,-0.017946913798717698,0.0011426864084725027,0
378,0.015120000000000022,5.000049991798719,-0.017289334156344746,0.00046637303388000206,0
379,0.015160000000000062,4.99972120164681,-0.018933283261316228,0.002091721534209206,0
380,0.015200000000000102,5.000049991798719,-0.0166317545134594,-0.00022827446583317118,0
381,0.01523999999999992,4.997748460733576,-0.01860449344057817,0.001726130785514651,0
382,0.01527999999999996,5.000049991798719,-0.018933283261316228,0.002036720729929631,0
383,0.01532,5.001693942556992,-0.01860449344057817,0.001689865054421976,0
384,0.01536000000000004,5.000378781950543,-0.021563601822605624,0.004631041824408228,0
385,0.01540000000000008,4.998406041038327,-0.017946913798717698,0.0009965566514487344,0
386,0.015439999999999898,5.000707572102282,-0.022549971280973066,0.005581951666906651,0
387,0.015479999999999938,4.997419670581074,-0.017289334156344746,0.00030378697611976174,0
388,0.015519999999999978,4.998077250885994,-0.020248442542986647,0.0032455029146639634,0
389,0.015560000000000018,4.999063621342738,-0.020248442542986647,0.0032282458011034035,0
390,0.015600000000000058,4.998406041038327,-0.021563601822605624,0.004526283517226448,0
391,0.0156400000000001,4.998406041038327,-0.021234812002893247,0.004180507898658571,0
392,0.015679999999999916,5.001036362253937,-0.021892391642189743,0.004821237717361152,0
393,0.015719999999999956,5.002680313010939,-0.024193920375685754,0.007106052821188348,0
394,0.015759999999999996,5.000049991798719,-0.024193920375685754,0.007089475594147552,0
395,0.015800000000000036,5.000049991798719,-0.023536340738185738,0.006415455342974094,0
396,0.015840000000000076,5.000378781950543,-0.023536340738185738,0.0063991515524408245,0
397,0.015879999999999894,5.000049991798719,-0.024193920375685754,0.007040564431351079,0
398,0.015919999999999934,4.999392411494816,-0.025837869467188898,0.008668484004038916,0
399,0.015959999999999974,5.000707572102282,-0.026824238920549456,0.00963896138521425,0
400,0.016000000000000014,5.000049991798719,-0.026824238920549456,0.009623206965536476,0
401,0.016040000000000054,5.000378781950543,-0.029454557457189598,0.012237908939902484,0
402,0.016080000000000094,4.99972120164681,-0.029125767640559533,0.011893640622314058,0
403,0.016119999999999912,5.000378781950543,-0.03142729635426868,0.014179829099305805,0
404,0.016159999999999952,4.99972120164681,-0.03142729635426868,0.014164627328764695,0
405,0.016199999999999992,5.000378781950543,-0.03274245561641449,0.015464723487488279,0
406,0.016240000000000032,5.001365152405508,-0.033071245431629134,0.015778589066346563,0
407,0.016280000000000072,5.000707572102282,-0.035701563948709644,0.018394122413085044,0
408,0.016320000000000112,5.000049991798719,-0.035043984320212454,0.017721896878207292,0
409,0.01635999999999993,5.000049991798719,-0.03635914357669136,0.019022549689209977,0
410,0.01639999999999997,5.001036362253937,-0.03668793339048888,0.019336972714371417,0
411,0.01644000000000001,5.000049991798719,-0.03668793339048888,0.019322745777501312,0
412,0.01648000000000005,5.000049991798719,-0.03767430283110791,0.02029502832692922,0
413,0.01652000000000009,5.001693942556992,-0.037016723204157484,0.01962350204736389,0
414,0.016559999999999908,5.000378781950543,-0.03668793339048888,0.019280906011535266,0
415,0.016599999999999948,5.000378781950543,-0.03800309264438971,0.020582399664588153,0
416,0.016639999999999988,5.000707572102282,-0.03767430283110791,0.02024008506160345,0
417,0.016680000000000028,4.99972120164681,-0.037016723204157484,0.019569121644901034,0
418,0.016720000000000068,5.000049991798719,-0.03800309264438971,0.020542248483108146,0
419,0.016760000000000108,5.000378781950543,-0.03668793339048888,0.019213988001652357,0
420,0.016799999999999926,4.99972120164681,-0.03603035376276496,0.018543448706551436,0
421,0.016839999999999966,5.000049991798719,-0.035043984320212454,0.01754426134146941,0
422,0.016880000000000006,5.000378781950543,-0.03603035376276496,0.0185179547899684,0
423,0.016920000000000046,5.000378781950543,-0.03603035376276496,0.01850542090697553,0
424,0.016960000000000086,4.99972120164681,-0.03471519450577058,0.01717787005958697,0
425,0.016999999999999904,4.99972120164681,-0.03471519450577058,0.017165620942280115,0
426,0.017039999999999944,5.000049991798719,-0.035701563948709644,0.018139883920436133,0
427,0.017079999999999984,4.999063621342738,-0.033071245431629134,0.015497601769477912,0
428,0.017120000000000024,4.998734831190575,-0.033071245431629134,0.01548578114382933,0
429,0.017160000000000064,5.000049991798719,-0.03274245561641449,0.015145313887458553,0
430,0.017200000000000104,5.000049991798719,-0.03208487598559902,0.014476200175179534,0
431,0.017239999999999922,4.99972120164681,-0.031756086169998185,0.014136019811941928,0
432,0.017279999999999962,5.000049991798719,-0.029783347273691016,0.012152034074890308,0
433,0.017320000000000002,5.000378781950543,-0.028468188006913683,0.010825771846255076,0
434,0.017360000000000042,5.000378781950543,-0.028139398189897927,0.010486023117188084,0
435,0.017400000000000082,5.000707572102282,-0.026166659285104213,0.008502469519993155,0
436,0.0174399999999999,5.000378781950543,-0.025180289830972882,0.007505429761874525,0
437,0.01747999999999994,5.000049991798719,-0.024193920375685754,0.006508534558695777,0
438,0.01751999999999998,5.000049991798719,-0.02320755091924319,0.0055117840770542255,0
439,0.01756000000000002,5.000049991798719,-0.023536340738185738,0.005830337758999905,0
440,0.01760000000000006,5.000049991798719,-0.0228787611001723,0.0051626670366110815,0
441,0.0176400000000001,5.000049991798719,-0.022221181461645576,0.0044951415296570745,0
442,0.017679999999999918,4.998077250885994,-0.022549971280973066,0.004814130858736606,0
443,0.017719999999999958,4.999392411494816,-0.021892391642189743,0.004146896269017856,0
444,0.017759999999999998,4.999392411494816,-0.022549971280973066,0.004794966656210852,0
445,0.017800000000000038,5.000049991798719,-0.022549971280973066,0.004785603262894938,0
446,0.017840000000000078,5.000049991798719,-0.021892391642189743,0.004118806246893612,0
447,0.017879999999999896,4.99972120164681,-0.02320755091924319,0.005424894319542075,0
448,0.017919999999999936,4.999063621342738,-0.0228787611001723,0.005087179624483338,0
449,0.017959999999999976,4.99972120164681,-0.02320755091924319,0.005407191050474074,0
450,0.018000000000000016,4.999063621342738,-0.02320755091924319,0.005398559293676022,0
451,0.018040000000000056,5.000378781950543,-0.02320755091924319,0.005390074325415773,0
452,0.018080000000000096,5.000049991798719,-0.023536340738185738,0.005710526115770287,0
453,0.018119999999999914,5.000049991798719,-0.024522710194243194,0.006688704632922482,0
454,0.018159999999999954,5.000049991798719,-0.023865130556999917,0.006023081295340889,0
455,0.018199999999999994,5.000378781950543,-0.024522710194243194,0.006672764618568033,0
456,0.018240000000000034,5.000707572102282,-0.024522710194243194,0.00666501583749789,0
457,0.018280000000000074,5.001036362253937,-0.025509079649145103,0.007643784189765518,0
458,0.018320000000000114,5.000049991798719,-0.025180289830972882,0.007307541091748324,0
459,0.018359999999999932,5.000049991798719,-0.025509079649145103,0.0076290255960793675,0
460,0.018399999999999972,4.99972120164681,-0.024522710194243194,0.006635498935413153,0
461,0.018440000000000012,5.000378781950543,-0.025509079649145103,0.007614859433556745,0
462,0.018480000000000052,5.000049991798719,-0.023536340738185738,0.005635259954627797,0
463,0.018520000000000092,5.000378781950543,-0.023536340738185738,0.005628547914080833,0
464,0.01855999999999991,4.998734831190575,-0.024193920375685754,0.006279564175939134,0
465,0.01859999999999995,4.99972120164681,-0.023536340738185738,0.005615569964031585,0
466,0.01863999999999999,5.000378781950543,-0.0228787611001723,0.004951724688017614,0
467,0.01868000000000003,4.99972120164681,-0.022221181461645576,0.004288028481911614,0
468,0.01872000000000007,5.000049991798719,-0.021234812002893247,0.0032956916588545706,0
469,0.01876000000000011,5.000707572102282,-0.021892391642189743,0.003947453268810837,0
470,0.018799999999999928,5.000049991798719,-0.021563601822605624,0.003612994885375095,0
471,0.018839999999999968,5.000049991798719,-0.021234812002893247,0.003278686096655637,0
472,0.018880000000000008,4.998406041038327,-0.021563601822605624,0.0036021066703908425,0
473,0.018920000000000048,5.000707572102282,-0.021234812002893247,0.0032680974547436526,0
474,0.018960000000000088,5.000707572102282,-0.021563601822605624,0.0035918178544007548,0
475,0.018999999999999906,4.99972120164681,-0.021234812002893247,0.0032581087151722157,0
476,0.019039999999999946,5.000378781950543,-0.021892391642189743,0.0039109192589712695,0
477,0.019079999999999986,5.000378781950543,-0.021563601822605624,0.003577510690205749,0
478,0.019120000000000026,5.000378781950543,-0.021892391642189743,0.0039018322280372237,0
479,0.019160000000000066,4.998406041038327,-0.021892391642189743,0.0038975145336391506,0
480,0.019200000000000106,5.000049991798719,-0.024193920375685754,0.006194876278828277,0
481,0.019239999999999924,5.000378781950543,-0.023865130556999917,0.005862070295471881,0
482,0.019279999999999964,5.000378781950543,-0.02320755091924319,0.0052006254330323074,0
483,0.019320000000000004,5.000049991798719,-0.022549971280973066,0.004539331625222401,0
484,0.019360000000000044,5.000049991798719,-0.023865130556999917,0.005850927900809574,0
485,0.019400000000000084,4.99972120164681,-0.024193920375685754,0.0061763060009123565,0
486,0.019439999999999902,5.000707572102282,-0.024522710194243194,0.006501835494297077,0
487,0.019479999999999942,5.001693942556992,-0.023865130556999917,0.005841147035640131,0
488,0.019519999999999982,5.000049991798719,-0.024851500012672237,0.006824559282799299,0
489,0.019560000000000022,5.001365152405508,-0.024851500012672237,0.006821753795118696,0
490,0.019600000000000062,5.000378781950543,-0.024851500012672237,0.006819100134991017,0
491,0.019640000000000102,5.000378781950543,-0.025180289830972882,0.007145388226223426,0
492,0.01967999999999992,5.000049991798719,-0.025180289830972882,0.007143038536505086,0
493,0.01971999999999996,4.99972120164681,-0.024522710194243194,0.006483261350479175,0
494,0.01976,4.997748460733576,-0.025837869467188898,0.007796375316402596,0
495,0.01980000000000004,5.000049991798719,-0.025837869467188898,0.007794482352283515,0
496,0.01984000000000008,5.000049991798719,-0.02715302873807933,0.009107901101362616,0
497,0.019879999999999898,4.99972120164681,-0.025837869467188898,0.0077911538491462935,0
498,0.019919999999999938,5.000378781950543,-0.02715302873807933,0.009104877776144953,0
499,0.019959999999999978,5.000049991798719,-0.02715302873807933,0.009103595165404892,0
500,0.020000000000000018,5.000378781950543,-0.028139398189897927,0.010088834834119494,0
501,0.020040000000000058,5.000378781950543,-0.02715302873807933,0.009101488520081982,0
502,0.020080000000000098,4.99972120164681,-0.02781060837275358,0.009758244305433978,0
503,0.020119999999999916,5.000378781950543,-0.027481818555480722,0.009428783742507642,0
504,0.020159999999999956,5.000049991798719,-0.028139398189897927,0.010085845824470736,0
505,0.020199999999999996,5.000707572102282,-0.026824238920549456,0.008770322284154529,0
506,0.020240000000000036,5.000049991798719,-0.02715302873807933,0.009098901199244433,0
507,0.020280000000000076,5.000378781950543,-0.026495449102891075,0.008441264115937723,0
508,0.020319999999999894,5.001036362253937,-0.027481818555480722,0.009427729659274482,0
509,0.020359999999999934,5.000707572102282,-0.02781060837275358,0.009756769189452317,0
510,0.020399999999999974,5.000378781950543,-0.02715302873807933,0.00909959297187948,0
511,0.020440000000000014,5.000049991798719,-0.027481818555480722,0.009428939991361567,0
512,0.020480000000000054,5.000049991798719,-0.028139398189897927,0.010087230692363922,0
513,0.020520000000000094,4.99972120164681,-0.026824238920549456,0.008772936432370537,0
514,0.02055999999999991,5.000378781950543,-0.02715302873807933,0.009102745279029274,0
515,0.02059999999999995,5.000049991798719,-0.026824238920549456,0.008775128586142327,0
516,0.02063999999999999,4.99972120164681,-0.026495449102891075,0.008447666063115708,0
517,0.02068000000000003,5.000378781950543,-0.026166659285104213,0.008120357783156828,0
518,0.02072000000000007,5.000378781950543,-0.025837869467188898,0.007793203818203779,0
519,0.02076000000000011,5.000378781950543,-0.026495449102891075,0.008452573692669406,0
520,0.02079999999999993,5.000049991798719,-0.02715302873807933,0.009112098021816098,0
521,0.02083999999999997,5.000378781950543,-0.025837869467188898,0.007799037968197875,0
522,0.02088000000000001,5.000049991798719,-0.025509079649145103,0.007472501957581961,0
523,0.02092000000000005,4.998077250885994,-0.026495449102891075,0.008461279874474686,0
524,0.02096000000000009,5.000378781950543,-0.026166659285104213,0.008135053239836074,0
525,0.020999999999999908,5.000378781950543,-0.026824238920549456,0.008795350841431303,0
526,0.021039999999999948,5.000049991798719,-0.026824238920549456,0.00879822365229909,0
527,0.021079999999999988,4.99972120164681,-0.026824238920549456,0.008801251368314719,0
528,0.021120000000000028,5.000049991798719,-0.02781060837275358,0.009790803500824478,0
529,0.021160000000000068,4.99972120164681,-0.027481818555480722,0.009465351385999788,0
530,0.021200000000000108,4.99972120164681,-0.028796977823800904,0.010784003435471798,0
531,0.021239999999999926,5.000049991798719,-0.029125767640559533,0.01111644116735388,0
532,0.021279999999999966,4.99972120164681,-0.030112137090063842,0.012106613719926336,0
533,0.021320000000000006,5.000378781950543,-0.029783347273691016,0.011781782247242755,0
534,0.021360000000000046,5.000049991798719,-0.030769716722423582,0.012772265331663726,0
535,0.021400000000000086,5.000049991798719,-0.029454557457189598,0.011461375044195272,0
536,0.021439999999999904,5.000707572102282,-0.029454557457189598,0.011465799412814089,0
537,0.021479999999999944,4.99972120164681,-0.028139398189897927,0.010155219952467168,0
538,0.021519999999999984,5.001036362253937,-0.028139398189897927,0.010159955243905288,0
539,0.021560000000000024,4.99972120164681,-0.028796977823800904,0.010822425698600275,0
540,0.021600000000000064,5.000049991798719,-0.02781060837275358,0.009841102641250807,0
541,0.021640000000000104,5.000707572102282,-0.026824238920549456,0.00885993519789211,0
542,0.02167999999999992,5.000049991798719,-0.026166659285104213,0.008207713227369696,0
543,0.02171999999999996,5.000378781950543,-0.025837869467188898,0.007884436770070918,0
544,0.02176,4.99972120164681,-0.026166659285104213,0.008218895682597654,0
545,0.02180000000000004,4.999063621342738,-0.025509079649145103,0.0075671409122293025,0
546,0.02184000000000008,5.000049991798719,-0.024193920375685754,0.006257962311006183,0
547,0.0218799999999999,5.000049991798719,-0.024522710194243194,0.00659288864279148,0
548,0.02191999999999994,5.000049991798719,-0.023536340738185738,0.005612811573978187,0
549,0.02195999999999998,4.99972120164681,-0.02320755091924319,0.005290470047997729,0
550,0.02200000000000002,4.99972120164681,-0.024193920375685754,0.006283443733497316,0
551,0.02204000000000006,4.99972120164681,-0.02320755091924319,0.0053038344712575975,0
552,0.0220800000000001,4.99972120164681,-0.021892391642189743,0.00399559138127604,0
553,0.022119999999999918,4.998406041038327,-0.023536340738185738,0.005646612683607007,0
554,0.022159999999999958,5.000049991798719,-0.02090602218305261,0.0030235223791352794,0
555,0.022199999999999998,4.998406041038327,-0.021234812002893247,0.003359696517694917,0
556,0.022240000000000038,4.999392411494816,-0.018933283261316228,0.0010657081852920407,0
557,0.022280000000000078,5.000049991798719,-0.021563601822605624,0.003703723267273147,0
558,0.022319999999999895,5.000378781950543,-0.020248442542986647,0.0023964166395893105,0
559,0.022359999999999935,5.001036362253937,-0.017946913798717698,0.00010289669688678948,0
560,0.022399999999999975,4.99972120164681,-0.018275703619711994,0.0004398514861272268,0
561,0.022440000000000015,4.999392411494816,-0.017289334156344746,-0.0005381968266065656,0
562,0.022480000000000055,5.000049991798719,-0.01597417487006185,-0.001844878765503346,0
563,0.022520000000000095,5.000707572102282,-0.01564538504817102,-0.0021650350302337106,0
564,0.022559999999999913,5.000378781950543,-0.014330225759327644,-0.0034714045404656106,0
565,0.022599999999999953,5.000049991798719,-0.014330225759327644,-0.0034624585300728795,0
566,0.022639999999999993,5.000378781950543,-0.014330225759327644,-0.0034533562789164605,0
567,0.022680000000000033,5.000049991798719,-0.012686276645394332,-0.0050880468932963906,0
568,0.022720000000000073,4.999063621342738,-0.013343856291351444,-0.004421052493106144,0
569,0.022760000000000113,5.000378781950543,-0.01301506646843685,-0.004740271302176812,0
570,0.02279999999999993,4.99972120164681,-0.012357486822223915,-0.005388123671357048,0
571,0.02283999999999997,5.000707572102282,-0.01301506646843685,-0.004720660482699004,0
572,0.02288000000000001,4.99972120164681,-0.012028696998925656,-0.005696990143484692,0
573,0.02292000000000005,4.99972120164681,-0.01301506646843685,-0.004700424599456538,0
574,0.02296000000000009,5.000049991798719,-0.014659015581730453,-0.0030461231477016716,0
575,0.02299999999999991,5.002022732708393,-0.013672646114138112,-0.004021984016095062,0
576,0.02303999999999995,4.99972120164681,-0.014330225759327644,-0.0033537395155361777,0
577,0.02307999999999999,5.000378781950543,-0.015316595226152155,-0.002356548943101104,0
578,0.02312000000000003,5.000707572102282,-0.01564538504817102,-0.0020167817725227737,0
579,0.02316000000000007,4.99972120164681,-0.0166317545134594,-0.0010192787243826287,0
580,0.02320000000000011,5.000049991798719,-0.017618123977595282,-2.1619453124715332e-05,0
581,0.023239999999999927,4.99972120164681,-0.017289334156344746,-0.00033896325437164643,0
582,0.023279999999999967,5.000049991798719,-0.018275703619711994,0.000659008429124381,0
583,0.023320000000000007,4.999392411494816,-0.01860449344057817,0.0009995566561192097,0
584,0.023360000000000047,5.000378781950543,-0.01860449344057817,0.0010114712327524283,0
585,0.023400000000000087,4.99972120164681,-0.018933283261316228,0.0013523317837618488,0
586,0.023439999999999905,5.000378781950543,-0.017946913798717698,0.0003781891868342123,0
587,0.023479999999999945,5.000378781950543,-0.01926207308192608,0.0017057314515011475,0
588,0.023519999999999985,4.997419670581074,-0.020248442542986647,0.0027046399888217103,0
589,0.023560000000000025,5.000707572102282,-0.021234812002893247,0.003703704597428144,0
590,0.023600000000000065,4.998077250885994,-0.021234812002893247,0.003716555794829792,0
591,0.023640000000000105,4.99972120164681,-0.022549971280973066,0.005044722293897597,0
592,0.023679999999999923,5.003337893313145,-0.022221181461645576,0.004729095692650473,0
593,0.023719999999999963,4.99972120164681,-0.021234812002893247,0.0037560454211974306,0
594,0.023760000000000003,4.999392411494816,-0.020577232363083744,0.0031119409086522304,0
595,0.023800000000000043,5.002022732708393,-0.01926207308192608,0.0018104126640885489,0
596,0.023840000000000083,4.999063621342738,-0.0228787611001723,0.005440887596240706,0
597,0.0238799999999999,4.998734831190575,-0.019590862902407788,0.002166932156293048,0
598,0.02391999999999994,5.001036362253937,-0.020248442542986647,0.0028386103638143693,0
599,0.02395999999999998,5.000049991798719,-0.019590862902407788,0.0021952850631331185,0
600,0.02400000000000002,4.999063621342738,-0.021892391642189743,0.004511223878211278,0
601,0.02404000000000006,5.002022732708393,-0.021563601822605624,0.004196999830378467,0
602,0.0240800000000001,5.000049991798719,-0.021892391642189743,0.004540511077837681,0
603,0.02411999999999992,4.999392411494816,-0.022549971280973066,0.005212967758899843,0
604,0.02415999999999996,4.997748460733576,-0.022549971280973066,0.005228000372472771,0
605,0.0242,5.001365152405508,-0.022549971280973066,0.005243188512839683,0
606,0.02424000000000004,4.99972120164681,-0.022549971280973066,0.00525853213410917,0
607,0.02428000000000008,4.99972120164681,-0.02320755091924319,0.005931610827267845,0
608,0.024319999999999897,5.000049991798719,-0.021234812002893247,0.003974526350749106,0
609,0.024359999999999937,5.000049991798719,-0.022221181461645576,0.0049767055842052065,0
610,0.024399999999999977,5.000049991798719,-0.022549971280973066,0.005321460461644502,0
611,0.024440000000000017,4.999063621342738,-0.021563601822605624,0.0043512112919371765,0
612,0.024480000000000057,4.998077250885994,-0.022549971280973066,0.005353856215257384,0
613,0.024520000000000097,5.000049991798719,-0.021892391642189743,0.004712707162067148,0
614,0.024559999999999915,5.000378781950543,-0.021892391642189743,0.004729292811250868,0
615,0.024599999999999955,5.000049991798719,-0.022549971280973066,0.005403613104360772,0
616,0.024639999999999995,5.000378781950543,-0.02320755091924319,0.006078088342253804,0
617,0.024680000000000035,5.000049991798719,-0.0228787611001723,0.005766349006856193,0
618,0.024720000000000075,5.000378781950543,-0.021892391642189743,0.004797184853951232,0
619,0.024759999999999893,5.000378781950543,-0.022549971280973066,0.0054721245551696985,0
620,0.024799999999999933,4.99972120164681,-0.0228787611001723,0.005818429128713488,0
621,0.024839999999999973,4.99972120164681,-0.02320755091924319,0.006164888327188225,0
622,0.024880000000000013,4.999063621342738,-0.024193920375685754,0.007169081719841255,0
623,0.024920000000000053,5.000378781950543,-0.023536340738185738,0.006529480505702479,0
624,0.024960000000000093,5.000049991798719,-0.023865130556999917,0.006876403163969173,0
625,0.02499999999999991,5.000378781950543,-0.022549971280973066,0.005579531071022329,0
626,0.02503999999999995,5.000378781950543,-0.023536340738185738,0.006584341981073957,0
627,0.02507999999999999,5.000049991798719,-0.023865130556999917,0.006931727447212235,0
628,0.02512000000000003,5.000378781950543,-0.024193920375685754,0.007279267031027712,0
629,0.02516000000000007,4.99972120164681,-0.023536340738185738,0.0066405911983769845,0
630,0.02520000000000011,5.000378781950543,-0.02320755091924319,0.006330859144510726,0
631,0.02523999999999993,5.000049991798719,-0.024193920375685754,0.007336440245356703,0
632,0.02527999999999997,4.99972120164681,-0.024193920375685754,0.007355805686779708,0
633,0.02532000000000001,4.99972120164681,-0.02320755091924319,0.006388955385064092,0
634,0.02536000000000005,4.999392411494816,-0.023536340738185738,0.0067374179869133695,0
635,0.02540000000000009,5.000049991798719,-0.02320755091924319,0.006428454492524218,0
636,0.025439999999999907,4.99972120164681,-0.023536340738185738,0.0067772240897244086,0
637,0.025479999999999947,5.000049991798719,-0.024193920375685754,0.007454936869834205,0
638,0.025519999999999987,5.000049991798719,-0.024522710194243194,0.007804013104591402,0
639,0.025560000000000027,5.000378781950543,-0.024851500012672237,0.0081532425206376,0
640,0.025600000000000067,5.000378781950543,-0.023536340738185738,0.006858675931602262,0
641,0.025640000000000107,4.997748460733576,-0.024193920375685754,0.007537001247392889,0
642,0.025679999999999925,4.99972120164681,-0.023536340738185738,0.006900320184616893,0
643,0.025719999999999965,4.99972120164681,-0.023536340738185738,0.0069213715579565065,0
644,0.025760000000000005,5.000378781950543,-0.024522710194243194,0.00792894508673928,0
645,0.025800000000000045,4.99972120164681,-0.023536340738185738,0.006963932302150607,0
646,0.025840000000000085,5.000707572102282,-0.023536340738185738,0.0069854414703080115,0
647,0.025879999999999903,5.000049991798719,-0.02320755091924319,0.006678313212743821,0
648,0.025919999999999943,5.000049991798719,-0.0228787611001723,0.006371337243391506,0
649,0.025959999999999983,5.001693942556992,-0.02320755091924319,0.00672209309422718,0
650,0.026000000000000023,4.99972120164681,-0.023536340738185738,0.007073001019273242,0
651,0.026040000000000063,5.000049991798719,-0.022221181461645576,0.005780111814054179,0
652,0.026080000000000103,5.000049991798719,-0.023865130556999917,0.007446482835412233,0
653,0.02611999999999992,5.000049991798719,-0.02320755091924319,0.006811476866392899,0
654,0.02615999999999996,5.000378781950543,-0.02320755091924319,0.006834202164500893,0
655,0.0262,5.000378781950543,-0.024522710194243194,0.008172238252202197,0
656,0.02624000000000004,4.997748460733576,-0.02320755091924319,0.006880107188305201,0
657,0.02628000000000008,5.000049991798719,-0.024193920375685754,0.007889656136646493,0
658,0.0263199999999999,5.000378781950543,-0.024522710194243194,0.008241776608877913,0
659,0.02635999999999994,5.000378781950543,-0.023536340738185738,0.007278888847834699,0
660,0.02639999999999998,5.000707572102282,-0.024193920375685754,0.007960101099839632,0
661,0.02644000000000002,5.000378781950543,-0.024522710194243194,0.008312674329128434,0
662,0.02648000000000006,4.999063621342738,-0.024193920375685754,0.008007818592849922,0
663,0.0265200000000001,4.99972120164681,-0.024851500012672237,0.008689482857569316,0
664,0.026559999999999917,5.000378781950543,-0.024851500012672237,0.008713717903247941,0
665,0.026599999999999957,4.99972120164681,-0.025180289830972882,0.009066893056249982,0
666,0.026639999999999997,5.000707572102282,-0.025509079649145103,0.009420218367808738,0
667,0.026680000000000037,4.99972120164681,-0.024522710194243194,0.008458534433226271,0
668,0.026720000000000077,4.99972120164681,-0.025837869467188898,0.009798529120257495,0
669,0.026759999999999895,4.99972120164681,-0.026166659285104213,0.010152304111443092,0
670,0.026799999999999935,5.001365152405508,-0.025180289830972882,0.009191069453771145,0
671,0.026839999999999975,5.000707572102282,-0.026166659285104213,0.010202723190141061,0
672,0.026880000000000015,5.000049991798719,-0.024193920375685754,0.008255417909916385,0
673,0.026920000000000055,5.000378781950543,-0.024193920375685754,0.008281000745827383,0
674,0.026960000000000095,5.000707572102282,-0.024522710194243194,0.008635522465361225,0
675,0.026999999999999913,4.99972120164681,-0.024522710194243194,0.008661403288337553,0
676,0.027039999999999953,5.000378781950543,-0.024851500012672237,0.009016222707263898,0
677,0.027079999999999993,4.99972120164681,-0.025509079649145103,0.009699980575862832,0
678,0.027120000000000033,4.998734831190575,-0.024193920375685754,0.008411148018853112,0
679,0.027160000000000073,5.000049991798719,-0.024193920375685754,0.00843762307090826,0
680,0.027200000000000113,4.99972120164681,-0.024522710194243194,0.008793036126995795,0
681,0.02723999999999993,5.000049991798719,-0.024851500012672237,0.009148597216887072,0
682,0.02727999999999997,4.999392411494816,-0.024851500012672237,0.009175516369326639,0
683,0.02732000000000001,5.000049991798719,-0.024522710194243194,0.008873793429948002,0
684,0.02736000000000005,5.000049991798719,-0.024851500012672237,0.009229797698260425,0
685,0.02740000000000009,4.997419670581074,-0.025180289830972882,0.009585949380088492,0
686,0.02743999999999991,4.999392411494816,-0.024851500012672237,0.009284668680359655,0
687,0.02747999999999995,5.000378781950543,-0.023865130556999917,0.008325955438293547,0
688,0.02751999999999999,5.000049991798719,-0.024522710194243194,0.009011338222757454,0
689,0.02756000000000003,5.000378781950543,-0.024193920375685754,0.008710498322205502,0
690,0.02760000000000007,5.000049991798719,-0.025180289830972882,0.009724964302044175,0
691,0.02764000000000011,5.000378781950543,-0.023536340738185738,0.008109258174707045,0
692,0.027679999999999927,5.000049991798719,-0.024193920375685754,0.00879522705149959,0
693,0.027719999999999967,5.000378781950543,-0.024522710194243194,0.009152552214728184,0
694,0.027760000000000007,5.000378781950543,-0.024522710194243194,0.009181233494906632,0
695,0.027800000000000047,4.999063621342738,-0.024522710194243194,0.009210060539314035,0
696,0.027840000000000087,5.000049991798719,-0.024522710194243194,0.009239033175265532,0
697,0.027879999999999905,4.99972120164681,-0.024522710194243194,0.009268151228670236,0
698,0.027919999999999945,5.000049991798719,-0.024522710194243194,0.009297414524031765,0
699,0.027959999999999985,4.999392411494816,-0.024193920375685754,0.008998033065891352,0
700,0.028000000000000025,5.000378781950543,-0.024851500012672237,0.009685165950044646,0
701,0.028040000000000065,5.000049991798719,-0.024522710194243194,0.00938607408582266,0
702,0.028080000000000105,4.99972120164681,-0.024193920375685754,0.00908712674739972,0
703,0.028119999999999923,4.99972120164681,-0.024522710194243194,0.009445903389503596,0
704,0.028159999999999963,4.99972120164681,-0.025509079649145103,0.010462403827446296,0
705,0.028200000000000003,4.99972120164681,-0.025180289830972882,0.010163888966490219,0
706,0.028240000000000043,5.000049991798719,-0.025509079649145103,0.010523097529334143,0
707,0.028280000000000083,5.000049991798719,-0.024851500012672237,0.009896080236868667,0
708,0.0283199999999999,5.000049991798719,-0.024522710194243194,0.009597996172263335,0
709,0.02835999999999994,5.000049991798719,-0.024522710194243194,0.009628845144985253,0
710,0.02839999999999998,5.000049991798719,-0.024522710194243194,0.009659837144289227,0
711,0.02844000000000002,4.99972120164681,-0.024522710194243194,0.00969097197646183,0
712,0.02848000000000006,4.999063621342738,-0.025180289830972882,0.010379829083122837,0
713,0.0285200000000001,5.000049991798719,-0.024522710194243194,0.00975366935757752,0
714,0.02855999999999992,5.000049991798719,-0.025180289830972882,0.010442811148844018,0
715,0.02859999999999996,4.998077250885994,-0.024522710194243194,0.009816935710708801,0
716,0.02864,5.000049991798719,-0.024193920375685754,0.009519991934115339,0
717,0.02868000000000004,4.99972120164681,-0.025180289830972882,0.010538349072655233,0
718,0.02872000000000008,5.000049991798719,-0.024851500012672237,0.010241688375423734,0
719,0.028759999999999897,4.99972120164681,-0.024193920375685754,0.009616379092459512,0
720,0.028799999999999937,5.000049991798719,-0.025509079649145103,0.010963949746640906,0
721,0.028839999999999977,4.99972120164681,-0.024522710194243194,0.010010132491518333,0
722,0.028880000000000017,4.999063621342738,-0.025509079649145103,0.011029194756226036,0
723,0.028920000000000057,5.000049991798719,-0.024851500012672237,0.010404448329167232,0
724,0.028960000000000097,4.99972120164681,-0.024851500012672237,0.010437421726384915,0
725,0.028999999999999915,5.000049991798719,-0.026495449102891075,0.012114484188434912,0
726,0.029039999999999955,5.000378781950543,-0.026166659285104213,0.011818947502518017,0
727,0.029079999999999995,5.000049991798719,-0.026166659285104213,0.01185234017846853,0
728,0.029120000000000035,5.000049991798719,-0.02715302873807933,0.012872241634133825,0
729,0.029160000000000075,5.000378781950543,-0.025509079649145103,0.011261963655906954,0
730,0.029200000000000115,5.001693942556992,-0.024851500012672237,0.01063819401805553,0
731,0.029239999999999933,4.99972120164681,-0.026495449102891075,0.012316091773327202,0
732,0.029279999999999973,4.99972120164681,-0.025180289830972882,0.011035019610032023,0
733,0.029320000000000013,5.000378781950543,-0.025509079649145103,0.011398034756158743,0
734,0.029360000000000053,5.000378781950543,-0.025180289830972882,0.011103608259657428,0
735,0.029400000000000093,5.000378781950543,-0.025180289830972882,0.011138109348054294,0
736,0.02943999999999991,4.999392411494816,-0.024193920375685754,0.010186378519525327,0
737,0.02947999999999995,5.001365152405508,-0.024522710194243194,0.010549944273464416,0
738,0.02951999999999999,4.99972120164681,-0.024851500012672237,0.010913647104788836,0
739,0.02956000000000003,5.000378781950543,-0.025180289830972882,0.011277486781018035,0
740,0.02960000000000007,5.000049991798719,-0.023536340738185738,0.009668724157342448,0
741,0.02964000000000011,5.000049991798719,-0.024193920375685754,0.010361626639918464,0
742,0.02967999999999993,4.99972120164681,-0.023865130556999917,0.010068295805687279,0
743,0.02971999999999997,5.000378781950543,-0.024193920375685754,0.010432680510254679,0
744,0.02976000000000001,4.999392411494816,-0.024193920375685754,0.010468411058246668,0
745,0.02980000000000005,5.000049991798719,-0.023865130556999917,0.010175487208983269,0
746,0.02984000000000009,5.000049991798719,-0.024522710194243194,0.010869067995037266,0
747,0.029879999999999907,5.000049991798719,-0.024193920375685754,0.010576414261275768,0
748,0.029919999999999947,4.99972120164681,-0.022549971280973066,0.008968735942581546,0
749,0.029959999999999987,5.000378781950543,-0.024193920375685754,0.010649090258414253,0
750,0.030000000000000027,5.000378781950543,-0.024193920375685754,0.010685629677157887,0
751,0.030040000000000067,5.000049991798719,-0.024193920375685754,0.010722303044691607,0
752,0.030080000000000107,5.000378781950543,-0.024851500012672237,0.011416689747814138,0
753,0.030119999999999925,4.999392411494816,-0.023865130556999917,0.010467260805339607,0
754,0.030159999999999965,5.000707572102282,-0.023536340738185738,0.010175544693892872,0
755,0.030200000000000005,4.99972120164681,-0.024851500012672237,0.011527910615674332,0
756,0.030240000000000045,5.000378781950543,-0.023865130556999917,0.01057888049163367,0
757,0.030280000000000085,5.000378781950543,-0.024193920375685754,0.010945142069349836,0
758,0.030319999999999903,5.000049991798719,-0.023865130556999917,0.010653956178809184,0
759,0.030359999999999943,5.000707572102282,-0.023865130556999917,0.010691692016441105,0
760,0.030399999999999983,5.000378781950543,-0.023865130556999917,0.010729559502588802,0
761,0.030440000000000023,5.000049991798719,-0.0228787611001723,0.009781188918112357,0
762,0.030480000000000063,5.000378781950543,-0.023865130556999917,0.010805688369842484,0
763,0.030520000000000103,4.99972120164681,-0.024193920375685754,0.011172739040991692,0
764,0.03055999999999992,4.99972120164681,-0.024193920375685754,0.011211130484688683,0
765,0.03059999999999996,4.99972120164681,-0.023865130556999917,0.010920862433271,0
766,0.03064,4.999063621342738,-0.024193920375685754,0.011288304073800054,0
767,0.03068000000000004,5.001693942556992,-0.024522710194243194,0.011655875498447628,0
768,0.03072000000000008,5.000707572102282,-0.024193920375685754,0.011365996798568668,0
769,0.0307599999999999,5.000707572102282,-0.024522710194243194,0.011733826975405573,0
770,0.03079999999999994,5.000049991798719,-0.024193920375685754,0.01144420648041411,0
771,0.03083999999999998,4.99972120164681,-0.026166659285104213,0.013456243403045057,0
772,0.03088000000000002,4.99972120164681,-0.025180289830972882,0.012509300374808938,0
773,0.03092000000000006,4.99972120164681,-0.024193920375685754,0.011562485479813821,0
774,0.0309600000000001,5.000378781950543,-0.025837869467188898,0.013246116986399426,0
775,0.030999999999999917,5.000378781950543,-0.025837869467188898,0.013285926975347289,0
776,0.031039999999999957,4.99972120164681,-0.026166659285104213,0.013654654073833861,0
777,0.031079999999999997,4.99972120164681,-0.026166659285104213,0.013694718362471322,0
778,0.031120000000000037,4.999392411494816,-0.025837869467188898,0.013406119556389045,0
779,0.031160000000000077,5.000049991798719,-0.026495449102891075,0.014104016640937583,0
780,0.031199999999999894,5.000378781950543,-0.02715302873807933,0.01480203987449341,0
781,0.031239999999999934,5.001693942556992,-0.026495449102891075,0.014185029698393779,0
782,0.031279999999999974,5.000378781950543,-0.027481818555480722,0.01521209418068676,0
783,0.031320000000000014,4.99972120164681,-0.026495449102891075,0.014266545037004466,0
784,0.031360000000000054,5.000049991798719,-0.026166659285104213,0.013978700514615828,0
785,0.031400000000000095,4.999392411494816,-0.02781060837275358,0.01566371959014054,0
786,0.03143999999999991,5.000707572102282,-0.026495449102891075,0.01438975470531803,0
787,0.03147999999999995,4.99972120164681,-0.026166659285104213,0.014102283373126532,0
788,0.03151999999999999,5.000049991798719,-0.026495449102891075,0.014472515479159918,0
789,0.03156000000000003,4.99972120164681,-0.026495449102891075,0.014514081270860471,0
790,0.03160000000000007,5.001036362253937,-0.026824238920549456,0.014884560083185268,0
791,0.03164000000000011,5.000049991798719,-0.026166659285104213,0.014268792343595075,0
792,0.03167999999999993,5.000707572102282,-0.025837869467188898,0.013981937019659132,0
793,0.03171999999999997,5.000378781950543,-0.028139398189897927,0.016325522530122445,0
794,0.03176000000000001,5.000049991798719,-0.028139398189897927,0.016367701306019142,0
795,0.03180000000000005,4.99972120164681,-0.030769716722423582,0.019040320295670383,0
796,0.03184000000000009,4.997419670581074,-0.03044092690630805,0.01875395230971682,0
797,0.03187999999999991,5.000378781950543,-0.03668793339048888,0.025043501687626504,0
798,0.03191999999999995,5.000049991798719,-0.03274245561641449,0.021140687560103455,0
799,0.03195999999999999,4.999063621342738,-0.03635914357669136,0.02480015960773687,0
800,0.03200000000000003,5.003009103162085,-0.03471519450577058,0.023199114751689866,0
801,0.03204000000000007,5.000378781950543,-0.035701563948709644,0.024228508222463314,0
802,0.03208000000000011,5.002022732708393,-0.03734551301769716,0.025915600816422718,0
803,0.032119999999999926,5.000378781950543,-0.03800309264438971,0.026616443148137166,0
804,0.032159999999999966,5.001365152405508,-0.04030462133375036,0.028961353404219993,0
805,0.032200000000000006,4.999392411494816,-0.044907678693494255,0.033607910872776633,0
806,0.032240000000000046,5.000049991798719,-0.04194857039370768,0.03069242090302591,0
807,0.032280000000000086,5.001036362253937,-0.04194857039370768,0.03073615713216189,0
808,0.032319999999999904,5.001036362253937,-0.046880417554202566,0.035711858097516584,0
809,0.032359999999999944,5.001365152405508,-0.042277360205311795,0.03115277180458215,0
810,0.032399999999999984,4.999063621342738,-0.04589404812443025,0.03481354770487746,0
811,0.032440000000000024,5.003009103162085,-0.04326372963934923,0.03222743379907146,0
812,0.032480000000000064,4.99972120164681,-0.04260615001678679,0.03161417502551579,0
813,0.032520000000000104,5.000378781950543,-0.04359251945043667,0.032644981248296005,0
814,0.03255999999999992,5.000049991798719,-0.04392130926139491,0.03301832345766057,0
815,0.03259999999999996,5.000049991798719,-0.04293493982813261,0.03207662169999593,0
816,0.03264,5.000378781950543,-0.04194857039370768,0.031135034885040675,0
817,0.03268000000000004,4.99972120164681,-0.04260615001678679,0.031837511736909796,0
818,0.03272000000000008,4.998077250885994,-0.04293493982813261,0.03221131305058437,0
819,0.0327599999999999,5.000707572102282,-0.04425009907222392,0.033571597733534055,0
820,0.03279999999999994,5.000049991798719,-0.044907678693494255,0.03427441639195826,0
821,0.03283999999999998,5.000049991798719,-0.0445788888829237,0.033990978877380396,0
822,0.03288000000000002,5.000378781950543,-0.04720920736386795,0.03666676257247942,0
823,0.03292000000000006,5.000049991798719,-0.046551627744407784,0.03605476074344179,0
824,0.0329600000000001,5.000378781950543,-0.048853156410254436,0.038401979432869236,0
825,0.03299999999999992,4.99972120164681,-0.048853156410254436,0.03844778134528611,0
826,0.03303999999999996,4.99972120164681,-0.050168315645034,0.03980885403578628,0
827,0.03308,5.000378781950543,-0.050168315645034,0.039854878688070715,0
828,0.03312000000000004,5.000049991798719,-0.05312742391571186,0.04286012245965193,0
829,0.03316000000000008,5.000378781950543,-0.05115468506975916,0.040933629614074214,0
830,0.033199999999999896,4.999392411494816,-0.05279863410837703,0.04262393480219155,0
831,0.033239999999999936,5.000378781950543,-0.05115468506975916,0.041026451710653306,0
832,0.033279999999999976,5.000378781950543,-0.050168315645034,0.04008665767784898,0
833,0.033320000000000016,5.000049991798719,-0.0498395258365333,0.03980455235217951,0
834,0.033360000000000056,5.000049991798719,-0.04852436660123595,0.03853618633550365,0
835,0.033400000000000096,5.000049991798719,-0.04852436660123595,0.038583087933608484,0
836,0.033439999999999914,5.000049991798719,-0.047537997173404054,0.03764372812587376,0
837,0.033479999999999954,4.99972120164681,-0.04589404812443025,0.03604689636031708,0
838,0.033519999999999994,5.000049991798719,-0.04523646850393555,0.035436541326708385,0
839,0.033560000000000034,5.000378781950543,-0.046880417554202566,0.03712782190630322,0
840,0.033600000000000074,5.001036362253937,-0.04852436660123595,0.038819209062905896,0
841,0.033640000000000114,5.000049991798719,-0.050168315645034,0.0405107024331439,0
842,0.03367999999999993,4.99972120164681,-0.052469844300912574,0.04285988126779447,0
843,0.03371999999999997,5.000378781950543,-0.05707290159361651,0.04751069422589883,0
844,0.03376000000000001,4.99972120164681,-0.06036079964426265,0.050846453061707944,0
845,0.03380000000000005,5.000049991798719,-0.06595022630053791,0.05648384525488339,0
846,0.03384000000000009,4.999063621342738,-0.07121086311914367,0.061792551992944464,0
847,0.03387999999999991,4.999392411494816,-0.0791018182844538,0.06973168108992914,0
848,0.03391999999999995,5.000707572102282,-0.08534882440360501,0.07602696478148721,0
849,0.03395999999999999,4.999063621342738,-0.09422614880735543,0.08495267002574183,0
850,0.03400000000000003,4.99972120164681,-0.10113073438852911,0.09190573934173704,0
851,0.03404000000000007,5.000378781950543,-0.10935047905231472,0.10017407025973926,0
852,0.03408000000000011,5.000378781950543,-0.11888538275893985,0.10975766236391418,0
853,0.03411999999999993,4.99972120164681,-0.12743391702194856,0.1183549867906073,0
854,0.03415999999999997,4.99972120164681,-0.13664003074327558,0.127609992063421,0
855,0.03420000000000001,5.000049991798719,-0.14749009320937,0.1385090470893412,0
856,0.03424000000000005,5.000378781950543,-0.1557098374050238,0.14677788447256868,0
857,0.03428000000000009,5.000049991798719,-0.16590232009133205,0.15701956059248218,0
858,0.034319999999999906,5.000378781950543,-0.17510843337441945,0.16627496717236787,0
859,0.034359999999999946,4.99972120164681,-0.18530091581456487,0.17651684238854637,0
860,0.034399999999999986,4.99972120164681,-0.1958221878745412,0.18708760631871585,0
861,0.034440000000000026,5.000049991798719,-0.2046995110671092,0.1960145200894488,0
862,0.034480000000000066,5.001693942556992,-0.21620715209501734,0.207571850016195,0
863,0.034520000000000106,4.999063621342738,-0.2273860032191295,0.21880048797141208,0
864,0.034559999999999924,5.000378781950543,-0.2359345363248534,0.2273989054509973,0
865,0.034599999999999964,5.000378781950543,-0.24678459744067005,0.23829894809281976,0
866,0.034640000000000004,4.99972120164681,-0.25500434061033206,0.24656876954892196,0
867,0.034680000000000044,5.000049991798719,-0.26289529397196426,0.2545098975646234,0
868,0.034720000000000084,5.000378781950543,-0.27111503697215866,0.2627799111926188,0
869,0.0347599999999999,5.000378781950543,-0.27670446216273215,0.2684197025897386,0
870,0.03479999999999994,5.000707572102282,-0.2803211490293341,0.2720868508455604,0
871,0.03483999999999998,4.99972120164681,-0.2826226770265821,0.27443893501754757,1
872,0.03488000000000002,5.000378781950543,-0.2803211490293341,0.27218805758232345,0
873,0.03492000000000006,5.000378781950543,-0.27604688273063216,0.26796453583361984,0
874,0.0349600000000001,5.000049991798719,-0.268155929502075,0.2601244207426524,0
875,0.03499999999999992,5.000049991798719,-0.2556619200601772,0.2476813426244834,0
876,0.03503999999999996,5.000049991798719,-0.24283912068862173,0.23490956736027807,0
877,0.03508,4.998734831190575,-0.2270572134824429,0.2191787766414912,0
878,0.03512000000000004,5.000049991798719,-0.21127530596064387,0.20344807758248803,0
879,0.03516000000000008,4.99972120164681,-0.1938494493738635,0.1860735210282142,0
880,0.0351999999999999,5.000049991798719,-0.17839633094992902,0.1706717937997522,0
881,0.03523999999999994,4.999063621342738,-0.16294321222794844,0.15527015702841687,0
882,0.03527999999999998,5.000378781950543,-0.1481476727480983,0.14052618984554638,0
883,0.03532000000000002,5.000378781950543,-0.13433850232271854,0.1267686816536005,0
884,0.03536000000000006,5.000049991798719,-0.12217328056301004,0.11465521165286137,0
885,0.0354000000000001,5.000378781950543,-0.11198079732731327,0.10451456928971538,0
886,0.035439999999999916,5.000049991798719,-0.10441863226392899,0.09700433379947693,0
887,0.035479999999999956,5.000049991798719,-0.09915799565696932,0.0917957150522429,0
888,0.035519999999999996,5.000707572102282,-0.09422614880735543,0.08691597393389366,0
889,0.035560000000000036,5.000378781950543,-0.09192462026741856,0.08466663858069726,0
890,0.035600000000000076,5.000378781950543,-0.09126704068339796,0.0840613392218106,0
891,0.035639999999999894,5.000707572102282,-0.09028067130638286,0.08312733669022468,0
892,0.035679999999999934,5.000707572102282,-0.09060946109885244,0.08350857952930793,0
893,0.035719999999999974,4.999392411494816,-0.09159583047547391,0.08454748773360751,0
894,0.035760000000000014,5.000049991798719,-0.09258219985091413,0.08558648129666438,0
895,0.035800000000000054,5.000049991798719,-0.09356856922517286,0.08662555979634978,0
896,0.035840000000000094,5.000378781950543,-0.09356856922517286,0.0866783534364588,0
897,0.03587999999999991,4.99972120164681,-0.09422614880735543,0.08738881074930925,0
898,0.03591999999999995,4.99972120164681,-0.09422614880735543,0.08744177214542011,0
899,0.03595999999999999,5.003009103162085,-0.09455493859824966,0.0878236065717635,0
900,0.03600000000000003,5.000049991798719,-0.09422614880735543,0.08754794422856667,0
901,0.03604000000000007,4.999392411494816,-0.09356856922517286,0.08694357447825787,0
902,0.03608000000000011,5.000049991798719,-0.09258219985091413,0.086010496890999,0
903,0.03611999999999993,5.000049991798719,-0.09225341005923197,0.08573508041141745,0
904,0.03615999999999997,5.000049991798719,-0.09225341005923197,0.08578853481762201,0
905,0.03620000000000001,4.99972120164681,-0.09028067130638286,0.08386933113311681,0
906,0.03624000000000005,4.999063621342738,-0.09028067130638286,0.0839229464306712,0
907,0.03628000000000009,4.99972120164681,-0.08896551213519292,0.08266148235235626,0
908,0.03631999999999991,4.999063621342738,-0.08896551213519292,0.08271525680570464,0
909,0.03635999999999995,4.99972120164681,-0.09028067130638286,0.08408426935491536,0
910,0.03639999999999999,5.000049991798719,-0.08732156316825516,0.08117909308272978,0
911,0.03644000000000003,4.999392411494816,-0.08765035296190492,0.0815618927925452,0
912,0.03648000000000007,5.000049991798719,-0.08732156316825516,0.08128719052664388,0
913,0.03652000000000011,5.000378781950543,-0.08567761419804089,0.07969740625618069,0
914,0.036559999999999926,5.001036362253937,-0.08567761419804089,0.0797516476874186,0
915,0.036599999999999966,5.000378781950543,-0.08534882440360501,0.07947717561425967,0
916,0.036640000000000006,5.000049991798719,-0.08502003460903816,0.07920277938863263,0
917,0.036680000000000046,4.99972120164681,-0.08567761419804089,0.07991482795093716,0
918,0.036720000000000086,5.000707572102282,-0.08370487542946127,0.0779966331157996,0
919,0.036759999999999904,5.000049991798719,-0.08337608563423975,0.07772246176902137,0
920,0.036799999999999944,5.000378781950543,-0.0840336652245519,0.07843473387672521,0
921,0.036839999999999984,5.000049991798719,-0.08337608563423975,0.07783192042579021,0
922,0.036880000000000024,5.000049991798719,-0.08337608563423975,0.07788675973928348,0
923,0.036920000000000064,4.99972120164681,-0.08337608563423975,0.07794167177812088,0
924,0.036960000000000104,5.000049991798719,-0.08337608563423975,0.07799665609263133,0
925,0.03699999999999992,5.000378781950543,-0.08337608563423975,0.07805171223224852,0
926,0.03703999999999996,4.99972120164681,-0.08238971624778989,0.07712047035906469,0
927,0.03708,5.000378781950543,-0.08173213665616903,0.07651808920201296,0
928,0.03712000000000004,4.998077250885994,-0.08008818767482774,0.07492940912331399,0
929,0.03716000000000008,5.001036362253937,-0.07778665909545869,0.07268321946055027,0
930,0.0371999999999999,4.99972120164681,-0.07416997131494572,0.0691219401556192,0
931,0.03723999999999994,5.000378781950543,-0.06825175491278114,0.06325920133215408,0
932,0.03727999999999998,4.99972120164681,-0.06101837925283336,0.056081371897295576,0
933,0.03732000000000002,5.000707572102282,-0.053456213722917104,0.04857482078126585,0
934,0.03736000000000006,5.000707572102282,-0.04425009907222392,0.03942438827480314,0
935,0.0374000000000001,5.000707572102282,-0.035372774134525484,0.03060281275236891,0
936,0.03743999999999992,5.001693942556992,-0.028139398189897927,0.02342525303387602,0
937,0.03747999999999996,4.99972120164681,-0.018933283261316228,0.01427502068128697,0
938,0.03752,5.000049991798719,-0.013672646114138112,0.009070331998101755,0
939,0.03756000000000004,5.000049991798719,-0.010055958056451306,0.005509657829708997,0
940,0.03760000000000008,4.99972120164681,-0.006768059808773,0.002277838433089402,0
941,0.037639999999999896,5.000049991798719,-0.008412008934208556,0.003977930906978205,0
942,0.037679999999999936,4.99972120164681,-0.00939837840793746,0.00502050776135525,0
943,0.037719999999999976,5.000049991798719,-0.013672646114138112,0.00935104641437369,0
944,0.037760000000000016,5.000049991798719,-0.019590862902407788,0.015325597248783837,0
945,0.037800000000000056,5.000049991798719,-0.025509079649145103,0.021300210673319622,0
946,0.037840000000000096,5.000049991798719,-0.03208487598559902,0.02793246585075153,0
947,0.037879999999999914,5.000378781950543,-0.04096220095812057,0.03686631135814228,0
948,0.037919999999999954,5.000378781950543,-0.050168315645034,0.04612900780372197,0
949,0.037959999999999994,5.000049991798719,-0.059703220035172325,0.05572055470542765,0
950,0.038000000000000034,4.999063621342738,-0.06595022630053791,0.06202426376356804,0
951,0.038040000000000074,5.001036362253937,-0.07416997131494572,0.07030077137947091,0
952,0.038080000000000114,5.000049991798719,-0.08238971624778989,0.0785773382492539,0
953,0.03811999999999993,4.99972120164681,-0.08896551213519292,0.08521001493497775,0
954,0.03815999999999997,5.000049991798719,-0.09685646713083039,0.09315790911547511,0
955,0.03820000000000001,5.000378781950543,-0.1024458935402696,0.09880433262069341,0
956,0.03824000000000005,4.999392411494816,-0.10902168926734575,0.10543718287807509,0
957,0.03828000000000009,5.000378781950543,-0.11526869515917111,0.1117413002575708,0
958,0.03831999999999991,5.001036362253937,-0.12020054188215752,0.11673031494766593,0
959,0.03835999999999995,4.99972120164681,-0.12546117835382642,0.1220481753871947,0
960,0.03839999999999999,5.000049991798719,-0.13006423523867633,0.12670851176121184,0
961,0.03844000000000003,4.99972120164681,-0.13400971254782096,0.13071132360063492,0
962,0.03848000000000007,5.000378781950543,-0.137297610290808,0.1340566104340673,0
963,0.03852000000000011,5.000378781950543,-0.14124308756481152,0.13805953087699468,0
964,0.03855999999999993,5.000378781950543,-0.14354461596578083,0.1404185560429381,0
965,0.03859999999999997,4.99972120164681,-0.1468325136701073,0.14376400362512515,0
966,0.03864000000000001,4.99972120164681,-0.15077799089766464,0.14776708335953465,0
967,0.03868000000000005,4.99972120164681,-0.1550522578724497,0.15209900498554146,0
968,0.03872000000000009,4.99972120164681,-0.15932652482460002,0.1564309782479384,0
969,0.038759999999999906,4.99972120164681,-0.1652447405670761,0.16240695147362247,0
970,0.038799999999999946,4.99972120164681,-0.17116295626601774,0.16838297534195545,0
971,0.038839999999999986,5.000049991798719,-0.178067541192985,0.1753454186370092,0
972,0.038880000000000026,4.998406041038327,-0.18234180802272937,0.17967759354534135,0
973,0.038920000000000066,4.998734831190575,-0.19023276210994672,0.18762650493275224,0
974,0.038960000000000106,5.000707572102282,-0.19680855712304873,0.19426030597806082,0
975,0.038999999999999924,5.000378781950543,-0.2027267725884327,0.20023657571737863,0
976,0.039039999999999964,4.999063621342738,-0.20765861877594044,0.20522652392957308,0
977,0.039080000000000004,4.999392411494816,-0.2122616751899738,0.20988772962738764,0
978,0.039120000000000044,5.000049991798719,-0.2132480444180765,0.210932294906028,0
979,0.039160000000000084,5.000049991798719,-0.21160409570389016,0.20934658851612242,0
980,0.0391999999999999,4.999063621342738,-0.20667224954088836,0.20447303045745996,0
981,0.03923999999999994,5.000378781950543,-0.19845250586784702,0.19631162017446546,0
982,0.03927999999999998,5.000049991798719,-0.18661607482964343,0.18453356731700274,0
983,0.03932000000000002,4.99972120164681,-0.1721493255449364,0.1701252405080589,0
984,0.03936000000000006,5.000378781950543,-0.1550522578724497,0.15308663911003192,0
985,0.0394000000000001,4.999392411494816,-0.13631124096930963,0.13440413178307267,0
986,0.03943999999999992,5.000049991798719,-0.11757022363360382,0.11572166682764817,0
987,0.03947999999999996,4.999063621342738,-0.09882920586791545,0.09703924374808018,0
988,0.03952,5.000378781950543,-0.08041697747135755,0.0786856518445839,0
989,0.03956000000000004,5.000707572102282,-0.06331990787873677,0.06164726005243608,0
990,0.03960000000000008,4.99972120164681,-0.04720920736386795,0.04559527814529393,0
991,0.0396399999999999,5.000378781950543,-0.03372882506167206,0.03217365475729744,0
992,0.03967999999999994,5.000707572102282,-0.022549971280973066,0.021053599695870576,0
993,0.03971999999999998,5.000378781950543,-0.01301506646843685,0.011577532905664559,0
994,0.03976000000000002,5.000049991798719,-0.005781690331979852,0.004403033591970973,0
995,0.03980000000000006,5.000049991798719,-0.0015074225859438989,0.0001876809659008688,0
996,0.0398400000000001,5.000049991798719,0.001122896037706475,-0.0023836847444132225,0
997,0.039879999999999916,5.000049991798719,-0.0008498429307955274,-0.0003519555736336416,0
998,0.039919999999999956,5.000707572102282,-0.0031513717215847087,0.002008600203352709,0
999,0.039959999999999996,5.000049991798719,-0.007754429284417372,0.00667072103069255,0
1000,0.040000000000000036,5.000707572102282,-0.014987805404005308,0.013963196186904628,0
1001,0.040040000000000076,5.000378781950543,-0.02320755091924319,0.02224207600411171,0
1002,0.040080000000000116,4.998734831190575,-0.03044092690630805,0.029534621051144613,0
1003,0.040119999999999933,4.999392411494816,-0.04161978058197445,0.04077267803686174,0
1004,0.040159999999999973,5.000049991798719,-0.04951073602790314,0.04872287053444242,0
1005,0.040200000000000014,4.999392411494816,-0.06134716905692379,0.060618573847673995,0
1006,0.040240000000000054,4.999392411494816,-0.06858054471400928,0.06791125251193075,0
1007,0.040280000000000094,4.99972120164681,-0.07515634071119788,0.07454638372910072,0
1008,0.04031999999999991,4.9967620902758165,-0.08337608563423975,0.08282549557423666,0
1009,0.04035999999999995,5.003995473615012,-0.08502003460903816,0.08452884266200184,0
1010,0.04039999999999999,5.000707572102282,-0.09060946109885244,0.09017769794387744,0
1011,0.04044000000000003,4.999392411494816,-0.09225341005923197,0.09188110586310119,0
1012,0.04048000000000007,5.003666683464122,-0.08995188151378213,0.08963906593043784,0
1013,0.04052000000000011,4.999063621342738,-0.08797914275542355,0.087725844925443,0
1014,0.04055999999999993,5.001693942556992,-0.08008818767482774,0.07989443622490337,0
1015,0.04059999999999997,5.000378781950543,-0.07384118151593398,0.07370700455835835,0
1016,0.04064000000000001,5.000707572102282,-0.06529264669586828,0.06521807182802339,0
1017,0.04068000000000005,5.001036362253937,-0.05575774236972354,0.05574279667357485,0
1018,0.04072000000000009,5.000378781950543,-0.04392130926139491,0.04396601930299,0
1019,0.04075999999999991,5.000049991798719,-0.030769716722423582,0.030874108551395427,0
1020,0.04079999999999995,4.99972120164681,-0.017946913798717698,0.01811101294779273,0
1021,0.04083999999999999,5.000707572102282,-0.004466531027802631,0.004690362512313501,0
1022,0.04088000000000003,5.000707572102282,0.008356272294735026,-0.00807268397733188,0
1023,0.04092000000000007,5.000049991798719,0.022494235156274286,-0.022150866026876243,0
1024,0.04096000000000011,5.000378781950543,0.03564582872569445,-0.035242655324025374,0
1025,0.040999999999999925,5.000049991798719,0.046495893572083224,-0.04603289295716159,0
1026,0.041039999999999965,4.99972120164681,0.05898990780673173,-0.05846705755733392,0
1027,0.041080000000000005,4.99972120164681,0.06819602367398483,-0.06761330188910389,0
1028,0.041120000000000045,5.000049991798719,0.07510061063847716,-0.07445799593777672,0
1029,0.041160000000000085,5.000049991798719,0.08200519765772811,-0.08130266918199142,0
1030,0.0411999999999999,5.000049991798719,0.08496430639699507,-0.08420184380856921,0
1031,0.04123999999999994,4.99972120164681,0.08726583542335548,-0.08644341890659057,0
1032,0.04127999999999998,5.000049991798719,0.08660825570091973,-0.08572586596260359,0
1033,0.04132000000000002,5.000049991798719,0.08529309625753255,-0.08435071452732051,0
1034,0.04136000000000006,4.99972120164681,0.08299156723636938,-0.08198917526720911,0
1035,0.0414000000000001,4.99972120164681,0.07970366864523482,-0.07864124871378608,0
1036,0.04143999999999992,5.000049991798719,0.07510061063847716,-0.07397814554552704,0
1037,0.04147999999999996,5.000378781950543,0.06983997294627126,-0.06865744601714441,0
1038,0.04152,5.000378781950543,0.06392175558060653,-0.06267915066557042,0
1039,0.04156000000000004,5.002351522859708,0.05997627735926084,-0.05867357883392574,0
1040,0.04160000000000008,5.000707572102282,0.05340048036363608,-0.05203767312935009,0
1041,0.0416399999999999,5.000707572102282,0.048139842803156765,-0.04671691228739605,0
1042,0.04167999999999994,5.000049991798719,0.04287920527475757,-0.04139613743151166,0
1043,0.04171999999999998,5.000049991798719,0.03959130683582415,-0.03804808814597643,0
1044,0.04176000000000002,5.000049991798719,0.03433066935967702,-0.032727286831380015,0
1045,0.04180000000000006,5.000378781950543,0.0313715607935042,-0.029708001962549954,0
1046,0.0418400000000001,5.002351522859708,0.028412452237539368,-0.026688705167725077,0
1047,0.04187999999999992,5.000049991798719,0.025782133529704057,-0.023998186813192726,0
1048,0.04191999999999996,5.000049991798719,0.023480604666976643,-0.021636447424652747,0
1049,0.04196,5.000378781950543,0.02216544531962629,-0.020261067201446326,0
1050,0.04200000000000004,5.000049991798719,0.02216544531962629,-0.02020083650496421,0
1051,0.04204000000000008,4.99972120164681,0.02117907581044083,-0.01915422700842849,0
1052,0.042079999999999895,5.000049991798719,0.021836655483104705,-0.019751557932967345,0
1053,0.042119999999999935,4.99972120164681,0.020521496138282788,-0.018376141609669494,0
1054,0.042159999999999975,4.99972120164681,0.021507865646709548,-0.019302246440018656,0
1055,0.042200000000000015,5.000378781950543,0.01953512663099438,-0.017269235577694025,0
1056,0.042240000000000055,4.99972120164681,0.018548757124844717,-0.016222587587788356,0
1057,0.042280000000000095,5.000378781950543,0.01756238761983417,-0.015175933493570992,0
1058,0.04231999999999991,5.000707572102282,0.01789117745471111,-0.015444433165791624,0
1059,0.04235999999999995,5.000049991798719,0.017233597785083862,-0.014726558292360359,0
1060,0.04239999999999999,5.000707572102282,0.015918438447348998,-0.013351099242271125,0
1061,0.04244000000000003,4.99972120164681,0.016247228281592724,-0.013619585388497973,0
1062,0.04248000000000007,4.999392411494816,0.01756238761983417,-0.01487443759623315,0
1063,0.04252000000000011,5.000707572102282,0.018548757124844717,-0.015800497061701252,0
1064,0.04255999999999993,5.000049991798719,0.019206336795484613,-0.01639776431749085,0
1065,0.04259999999999997,4.99972120164681,0.021507865646709548,-0.018638978912555948,0
1066,0.04264000000000001,5.000049991798719,0.024138184341410046,-0.02120898204405043,0
1067,0.04268000000000005,4.99972120164681,0.025124553854007567,-0.022135035220919044,0
1068,0.04272000000000009,5.000049991798719,0.027097292882612076,-0.024047457676049988,0
1069,0.04275999999999991,5.000707572102282,0.029070031915759978,-0.025959880433007898,0
1070,0.04279999999999995,5.000378781950543,0.030713981113518377,-0.02754351418713269,0
1071,0.04283999999999999,5.000049991798719,0.03202914047399413,-0.028798359472043664,0
1072,0.04288000000000003,5.000049991798719,0.033015509995673945,-0.029724416821974256,0
1073,0.04292000000000007,5.000378781950543,0.03400187951848738,-0.03065047661283017,0
1074,0.04296000000000011,5.000049991798719,0.033673089677423634,-0.03026138001580092,0
1075,0.04299999999999993,5.000049991798719,0.034988249042434,-0.03151623613725711,0
1076,0.04303999999999997,5.000378781950543,0.03597461856751347,-0.032442306467827156,0
1077,0.04308000000000001,5.000378781950543,0.03696098809372539,-0.033368381385416854,0
1078,0.04312000000000005,4.99972120164681,0.03696098809372539,-0.03330809189972812,0
1079,0.04316000000000009,5.000378781950543,0.03827614746376892,-0.034562967444261225,0
1080,0.043199999999999905,5.000707572102282,0.03959130683582415,-0.035817849188422415,0
1081,0.043239999999999945,4.99972120164681,0.04024888652260587,-0.03641515798255286,0
1082,0.043279999999999985,5.000707572102282,0.040577676366185214,-0.03668368420653306,0
1083,0.043320000000000025,4.999063621342738,0.040577676366185214,-0.03662342839797342,0
1084,0.043360000000000065,4.99972120164681,0.04090646620989019,-0.03689197078231847,0
1085,0.043400000000000105,5.000049991798719,0.04024888652260587,-0.03617415252320179,0
1086,0.04343999999999992,5.000378781950543,0.03827614746376892,-0.03414118431855033,0
1087,0.04347999999999996,5.000378781950543,0.03860493730659416,-0.03440975498022629,0
1088,0.04352,5.000049991798719,0.037618567778495635,-0.033363176774442935,0
1089,0.04356000000000004,5.000049991798719,0.03663219825152894,-0.03231660961220176,0
1090,0.04360000000000008,5.001365152405508,0.034988249042434,-0.030612474349330163,0
1091,0.0436399999999999,5.001036362253937,0.03597461856751347,-0.031538669941354736,0
1092,0.04367999999999994,5.000049991798719,0.036303408409458296,-0.03180729851032163,0
1093,0.04371999999999998,5.000049991798719,0.03860493730659416,-0.03404867933403766,0
1094,0.04376000000000002,5.000707572102282,0.04189283574175878,-0.037276443434942366,0
1095,0.04380000000000006,5.000707572102282,0.04616710372624461,-0.041490591364045565,0
1096,0.0438400000000001,5.000707572102282,0.051098951426982675,-0.046362333828105826,0
1097,0.04387999999999992,4.999392411494816,0.05471563975876172,-0.049918932281844394,0
1098,0.04391999999999996,4.998406041038327,0.05833232810566989,-0.0534755466493816,0
1099,0.04396,5.000707572102282,0.061949016467688606,-0.05703217747082552,0
1100,0.04400000000000004,5.000378781950543,0.06523691499171154,-0.0602600354332857,0
1101,0.04404000000000008,5.000378781950543,0.06852481352819326,-0.06348791092751671,0
1102,0.0440799999999999,5.000707572102282,0.06918239323698341,-0.06408548565374686,0
1103,0.04411999999999994,5.000707572102282,0.06983997294627126,-0.06468307898061763,0
1104,0.04415999999999998,5.000378781950543,0.07115513236633955,-0.06593827115893201,0
1105,0.04420000000000002,4.998406041038327,0.07082634251113593,-0.06554953374322041,0
1106,0.04424000000000006,4.99972120164681,0.07082634251113593,-0.06548960640459846,0
1107,0.0442800000000001,4.99972120164681,0.07181271207711976,-0.06641606939453838,0
1108,0.044319999999999915,5.000378781950543,0.07016876280110178,-0.06471223484579332,0
1109,0.044359999999999955,5.000049991798719,0.06852481352819326,-0.06300842214425476,0
1110,0.044399999999999995,4.99972120164681,0.06786723381990087,-0.062291001392245735,0
1111,0.044440000000000035,5.000707572102282,0.06556570484479929,-0.059929654299188145,0
1112,0.044480000000000075,5.000707572102282,0.06523691499171154,-0.05954106979477769,0
1113,0.044520000000000115,5.000378781950543,0.06359296572814185,-0.057837349887411516,0
1114,0.04455999999999993,5.000049991798719,0.061949016467688606,-0.05613365453159594,0
1115,0.04459999999999997,5.000049991798719,0.06063385706157101,-0.054758774119467724,0
1116,0.04464000000000001,4.99972120164681,0.05898990780673173,-0.05305512948889156,0
1117,0.04468000000000005,5.000378781950543,0.05701716870504489,-0.051022721182662725,0
1118,0.04472000000000009,5.000378781950543,0.05504442960785576,-0.04899033959304146,0
1119,0.04475999999999991,5.000049991798719,0.052085320970511856,-0.04597161571627889,0
1120,0.04479999999999995,4.999392411494816,0.04978379203736312,-0.04361049933761201,0
1121,0.04483999999999999,5.000378781950543,0.04616710372624461,-0.03993425191574098,0
1122,0.04488000000000003,5.000378781950543,0.04189283574175878,-0.03560045369610602,0
1123,0.04492000000000007,5.000378781950543,0.037947357621069405,-0.0315954747566758,0
1124,0.04496000000000011,5.000707572102282,0.03268672015498804,-0.02627536642902844,0
1125,0.04499999999999993,5.000707572102282,0.0264397132059056,-0.019968919116277642,0
1126,0.04503999999999997,5.000378781950543,0.02019270630239349,-0.01366250288766831,0
1127,0.04508000000000001,4.99972120164681,0.012301750279031881,-0.005712169118399517,0
1128,0.04512000000000005,4.99972120164681,0.005725953648695714,0.0009229731380949249,0
1129,0.04516000000000009,4.99972120164681,-0.002165002240582567,0.008873241993289123,0
1130,0.04519999999999991,5.000049991798719,-0.011042327528263687,0.01780984704622117,0
1131,0.04523999999999995,5.000378781950543,-0.018275703619711994,0.02510246916190899,0
1132,0.04527999999999999,4.999392411494816,-0.026495449102891075,0.03338142638805135,0
1133,0.04532000000000003,4.999392411494816,-0.035372774134525484,0.04231792834119501,0
1134,0.04536000000000007,5.001036362253937,-0.04161978058197445,0.04862407634861383,0
1135,0.04540000000000011,5.000378781950543,-0.05082589526164695,0.05788929668672928,0
1136,0.045439999999999925,5.000378781950543,-0.058716850620562686,0.06583932126267694,0
1137,0.045479999999999965,5.000378781950543,-0.06693659570656622,0.07411809858452614,0
1138,0.045520000000000005,4.999063621342738,-0.07515634071119788,0.08239683830415621,0
1139,0.045560000000000045,5.000049991798719,-0.0820609264520449,0.08936038069961312,0
1140,0.045600000000000085,4.99972120164681,-0.08995188151378213,0.09731025381615559,0
1141,0.0456399999999999,5.000378781950543,-0.09685646713083039,0.10427371834891874,0
1142,0.04567999999999994,5.000707572102282,-0.1024458935402696,0.1099219839958326,0
1143,0.04571999999999998,5.000049991798719,-0.1100080586218566,0.11754294809764539,0
1144,0.04576000000000002,5.000378781950543,-0.11493990537658023,0.12253355311648396,0
1145,0.04580000000000006,4.99972120164681,-0.11954296232081356,0.12719532703001113,0
1146,0.0458400000000001,5.000049991798719,-0.12447480901797399,0.13218584886309143,0
1147,0.04587999999999992,5.000049991798719,-0.12710512724426004,0.13487479985353307,0
1148,0.04591999999999996,5.000049991798719,-0.13137939434385165,0.1392076568072937,0
1149,0.04596,4.998734831190575,-0.13433850232271854,0.14222531119229417,0
1150,0.04600000000000004,5.000378781950543,-0.13664003074327558,0.14458534203307966,0
1151,0.04604000000000008,5.000049991798719,-0.14025671824810987,0.14826048743455217,0
1152,0.0460799999999999,5.000049991798719,-0.14387340573681423,0.1519355877588095,0
1153,0.04611999999999994,4.99972120164681,-0.14781888297880097,0.1559394322379643,0
1154,0.04615999999999998,4.99972120164681,-0.15307951927151348,0.16125838963236094,0
1155,0.04620000000000002,5.000378781950543,-0.15801136576481256,0.16624851055496706,0
1156,0.04624000000000006,5.000049991798719,-0.16327200199108388,0.17156737400148642,0
1157,0.0462800000000001,5.000378781950543,-0.16820384842199382,0.17655739990712002,0
1158,0.04631999999999992,4.999392411494816,-0.1718205357854315,0.18023221846351375,0
1159,0.04635999999999996,4.99972120164681,-0.17576601289060007,0.18423577794385507,0
1160,0.0464,5.000707572102282,-0.17773875143590606,0.18626654951076752,0
1161,0.04644000000000004,4.999063621342738,-0.178067541192985,0.1866533224003419,0
1162,0.04648000000000008,5.000049991798719,-0.17740996167869222,0.18605367559413255,0
1163,0.046519999999999895,5.000378781950543,-0.17313569482264318,0.18183729048670286,0
1164,0.046559999999999935,5.001693942556992,-0.16623110985325845,0.1749905357716757,0
1165,0.046599999999999975,5.000049991798719,-0.1586689452949745,0.16748614943894974,0
1166,0.046640000000000015,4.99972120164681,-0.14749009320937,0.1563650230158307,0
1167,0.046680000000000055,5.000049991798719,-0.1349960818721146,0.14392868424398542,0
1168,0.046720000000000095,5.000049991798719,-0.12184449078319924,0.1308347120896781,0
1169,0.04675999999999991,5.000378781950543,-0.10606258119668784,0.115110367273527,0
1170,0.04679999999999995,5.000049991798719,-0.09225341005923197,0.10135870620902443,0
1171,0.04683999999999999,4.99972120164681,-0.07581392030804664,0.08497667130051809,0
1172,0.04688000000000003,4.999392411494816,-0.06233353846841526,0.07155368854072164,0
1173,0.04692000000000007,4.999392411494816,-0.048853156410254436,0.05813064926728464,0
1174,0.04696000000000011,5.000378781950543,-0.03471519450577058,0.0440499733204546,0
1175,0.04699999999999993,5.000378781950543,-0.024522710194243194,0.03391471760786562,0
1176,0.04703999999999997,4.999392411494816,-0.014001435936796827,0.02345061405931578,0
1177,0.04708000000000001,5.000049991798719,-0.003808951374948702,0.013315241785320078,0
1178,0.04712000000000005,4.999392411494816,0.003424424840084442,0.006138918906422618,0
1179,0.04716000000000009,4.998406041038327,0.009671431620803153,-5.109402021487991e-05,0
1180,0.04719999999999991,5.000378781950543,0.015918438447348998,-0.006241167004731478,0
1181,0.04723999999999995,5.000049991798719,0.01789117745471111,-0.008157032711768313,0
1182,0.04727999999999999,5.000378781950543,0.020521496138282788,-0.010730539166019813,0
1183,0.04732000000000003,5.000707572102282,0.02085028597429857,-0.011002578372665467,0
1184,0.04736000000000007,5.000378781950543,0.021507865646709548,-0.011603469544239846,0
1185,0.04740000000000011,5.000707572102282,0.021507865646709548,-0.011546843700153471,0
1186,0.04743999999999993,5.000378781950543,0.019206336795484613,-0.009188752189436926,0
1187,0.04747999999999997,5.000378781950543,0.018548757124844717,-0.008474673571367074,0
1188,0.04752000000000001,4.99972120164681,0.016904807950460177,-0.006774289688698157,0
1189,0.04756000000000005,5.000378781950543,0.014274489278030808,-0.004087601073825699,0
1190,0.04760000000000009,4.99972120164681,0.01328811977796078,-0.0030449269234560927,0
1191,0.047639999999999905,4.999392411494816,0.011315380781244458,-0.0010159490944870939,0
1192,0.047679999999999945,5.000049991798719,0.009342641789095676,0.0010129623863681728,0
1193,0.047719999999999985,5.000707572102282,0.009013851957515154,0.0013978578380191772,0
1194,0.047760000000000025,5.000378781950543,0.008027482463535476,0.0024402655587583352,0
1195,0.047800000000000065,4.99972120164681,0.007369902801517392,0.003153815529970058,0
1196,0.047840000000000105,4.99972120164681,0.008685062126061585,0.0018945580732243478,0
1197,0.04787999999999992,5.000049991798719,0.01032901128459894,0.00030644181769180767,0
1198,0.04791999999999996,5.000378781950543,0.011972960446309217,-0.001281743928769681,0
1199,0.04796,4.999392411494816,0.013945699444547363,-0.0031987895220359774,0
1200,0.04800000000000004,5.000707572102282,0.016904807950460177,-0.006102275155328012,0
1201,0.04804000000000008,5.001693942556992,0.019863916466630674,-0.009005831852850824,0
1202,0.0480799999999999,5.000378781950543,0.024138184341410046,-0.013224619484120216,0
1203,0.04811999999999994,5.000378781950543,0.025782133529704057,-0.014813160524743879,0
1204,0.04815999999999998,5.000049991798719,0.030713981113518377,-0.019689672576961352,0
1205,0.04820000000000002,4.99972120164681,0.033673089677423634,-0.022593518745103847,0
1206,0.04824000000000006,5.000049991798719,0.037289777936047624,-0.026155018263081052,0
1207,0.0482800000000001,5.000049991798719,0.03959130683582415,-0.028401432596124737,0
1208,0.04831999999999992,4.99972120164681,0.04255041543029908,-0.03130550131608955,0
1209,0.04835999999999996,5.000378781950543,0.045180734189481195,-0.03388085541079852,0
1210,0.0484,5.000049991798719,0.04748226311035131,-0.036127495394546835,0
1211,0.04844000000000004,4.99972120164681,0.04879742249646346,-0.03738784208769784,0
1212,0.04848000000000008,4.999063621342738,0.05175653112254362,-0.040292214781276384,0
1213,0.0485199999999999,5.001036362253937,0.05175653112254362,-0.04023755612501763,0
1214,0.04855999999999994,4.99972120164681,0.05504442960785576,-0.0434708737455764,0
1215,0.04859999999999998,4.99972120164681,0.056688378855200935,-0.04506032043440997,0
1216,0.04864000000000002,5.000707572102282,0.05701716870504489,-0.045334686546189135,0
1217,0.04868000000000006,5.000049991798719,0.06162022661597208,-0.04988340005316695,0
1218,0.0487200000000001,5.002022732708393,0.05898990780673173,-0.047198816687219786,0
1219,0.048759999999999915,4.998734831190575,0.0626065961714958,-0.050761320855099754,0
1220,0.048799999999999955,5.000707572102282,0.06030506721035353,-0.048405688568924174,0
1221,0.048839999999999995,5.001036362253937,0.05997627735926084,-0.04802287677611959,0
1222,0.048880000000000035,5.000707572102282,0.06162022661597208,-0.04961288598534844,0
1223,0.048920000000000075,4.997748460733576,0.061291436764380286,-0.04923023849084386,0
1224,0.048960000000000115,4.9970908804284875,0.06326417587580183,-0.05114920287368917,0
1225,0.04899999999999993,4.99972120164681,0.06392175558060653,-0.051753091273442714,0
1226,0.04903999999999997,5.000378781950543,0.0626065961714958,-0.05038432449141067,0
1227,0.04908000000000001,5.000049991798719,0.06359296572814185,-0.05131717111528104,0
1228,0.04912000000000005,4.99972120164681,0.06326417587580183,-0.05093494327773262,0
1229,0.04916000000000009,5.000707572102282,0.06425054543319586,-0.051867960304307674,0
1230,0.04919999999999991,4.999392411494816,0.06523691499171154,-0.0528010632926112,0
1231,0.04923999999999995,5.000378781950543,0.06490812513874837,-0.052419093335649966,0
1232,0.04927999999999999,5.000049991798719,0.06688086425839593,-0.05433873932250558,0
1233,0.04932000000000003,5.000707572102282,0.06589449469801162,-0.05329936410490677,0
1234,0.04936000000000007,5.000049991798719,0.06885360338252611,-0.05620555511152949,0
1235,0.04940000000000011,5.000707572102282,0.06786723381990087,-0.05516635635344941,0
1236,0.04943999999999993,5.000378781950543,0.06983997294627126,-0.05708635526927966,0
1237,0.04947999999999997,5.000049991798719,0.0714839222216675,-0.0586776538208866,0
1238,0.04952000000000001,4.99972120164681,0.07181271207711976,-0.05895388294048956,0
1239,0.04956000000000005,4.999392411494816,0.07214150193269635,-0.05923020254869379,0
1240,0.04960000000000009,5.000378781950543,0.07214150193269635,-0.05917782328967773,0
1241,0.049639999999999906,4.99972120164681,0.0731278715001718,-0.06011190508571012,0
1242,0.049679999999999946,5.000049991798719,0.07411424106876553,-0.06104607886898274,0
1243,0.049719999999999986,5.000378781950543,0.0737854512124434,-0.060665185711337416,0
1244,0.049760000000000026,5.000049991798719,0.07345666135624548,-0.060284385535012114,0
1245,0.049800000000000066,5.000707572102282,0.0737854512124434,-0.06056125854879298,0
1246,0.049840000000000106,4.99972120164681,0.0737854512124434,-0.060509435679912134,0
1247,0.049879999999999924,4.999392411494816,0.0737854512124434,-0.06045770727969953,0
1248,0.049919999999999964,5.000049991798719,0.0737854512124434,-0.060406073842588365,0
1249,0.049960000000000004,5.000049991798719,0.07214150193269635,-0.058710586582560786,0
1250,0.050000000000000044,4.999392411494816,0.0731278715001718,-0.05964551411960646,0
1251,0.050040000000000084,5.000378781950543,0.07214150193269635,-0.0586077989638578,0
1252,0.0500799999999999,4.997419670581074,0.0731278715001718,-0.05954291987680307,0
1253,0.05011999999999994,4.99972120164681,0.07082634251113593,-0.05719023965784188,0
1254,0.05015999999999998,4.999392411494816,0.06983997294627126,-0.05615281677778911,0
1255,0.05020000000000002,5.000378781950543,0.07016876280110178,-0.056430651721566374,0
1256,0.05024000000000006,4.999392411494816,0.07049755265605667,-0.05670858555826075,0
1257,0.0502800000000001,5.000049991798719,0.07049755265605667,-0.056657828920706144,0
1258,0.05031999999999992,5.000378781950543,0.06983997294627126,-0.055949592441235284,0
1259,0.05035999999999996,4.999392411494816,0.07016876280110178,-0.05622782588065779,0
1260,0.0504,4.998077250885994,0.07016876280110178,-0.05617737030517525,0
1261,0.05044000000000004,4.99972120164681,0.07049755265605667,-0.05645580590945578,0
1262,0.05048000000000008,4.99972120164681,0.07016876280110178,-0.056076763612746924,0
1263,0.0505199999999999,4.99972120164681,0.07115513236633955,-0.05701298302848776,0
1264,0.05055999999999994,5.000378781950543,0.07082634251113593,-0.056634145798600315,0
1265,0.05059999999999998,5.000378781950543,0.07115513236633955,-0.05691299153570367,0
1266,0.05064000000000002,5.000049991798719,0.07214150193269635,-0.0578495207215237,0
1267,0.05068000000000006,5.000378781950543,0.07082634251113593,-0.0564846251371743,0
1268,0.0507200000000001,5.000378781950543,0.07181271207711976,-0.05742136323750039,0
1269,0.050759999999999916,5.000049991798719,0.07247029178839723,-0.05802941665882882,0
1270,0.050799999999999956,5.000049991798719,0.07247029178839723,-0.057979996022354964,0
1271,0.050839999999999996,4.99972120164681,0.07279908164422239,-0.0582594713721317,0
1272,0.050880000000000036,5.000378781950543,0.07411424106876553,-0.05952542289718086,0
1273,0.050920000000000076,4.99972120164681,0.07477182078178243,-0.06013390179256089,0
1274,0.050960000000000116,4.99972120164681,0.0757581903522391,-0.06107127810170902,0
1275,0.050999999999999934,5.000378781950543,0.0757581903522391,-0.061022392870363505,0
1276,0.051039999999999974,5.000049991798719,0.07510061063847716,-0.060316036428012254,0
1277,0.051080000000000014,4.99972120164681,0.07641577006649763,-0.06158252810214628,0
1278,0.051120000000000054,5.000049991798719,0.07805971935431567,-0.06317791908187573,0
1279,0.051160000000000094,4.99972120164681,0.07970366864523482,-0.06477341998074254,0
1280,0.05119999999999991,5.000049991798719,0.07904608892849513,-0.0640675022573636,0
1281,0.05123999999999995,5.000378781950543,0.07773092949650393,-0.06270411567265659,0
1282,0.05127999999999999,4.999063621342738,0.07773092949650393,-0.06265599984150316,0
1283,0.05132000000000003,4.99972120164681,0.07773092949650393,-0.06260799579867457,0
1284,0.05136000000000007,5.000049991798719,0.07740213963881623,-0.0622313141523642,0
1285,0.05140000000000011,4.99972120164681,0.07937487878680298,-0.06415627423092893,0
1286,0.05143999999999993,5.000049991798719,0.07773092949650393,-0.062464659054511894,0
1287,0.05147999999999997,5.000378781950543,0.07838850921225148,-0.06307468653065261,0
1288,0.05152000000000001,5.000707572102282,0.07740213963881623,-0.06204087882642763,0
1289,0.05156000000000005,4.998734831190575,0.07805971935431567,-0.06265113498135416,0
1290,0.05160000000000009,5.000049991798719,0.07937487878680298,-0.06391908588397384,0
1291,0.05163999999999991,4.99972120164681,0.07838850921225148,-0.06288562326983216,0
1292,0.05167999999999995,5.000378781950543,0.0787172990703113,-0.06316743603723037,0
1293,0.05171999999999999,5.000049991798719,0.07937487878680298,-0.06377815506971402,0
1294,0.05176000000000003,5.000378781950543,0.07970366864523482,-0.0640602011075856,0
1295,0.05180000000000007,5.000378781950543,0.08003245850379062,-0.06434236446488736,0
1296,0.05184000000000011,5.001036362253937,0.08069003822127407,-0.06495343545534071,0
1297,0.051879999999999926,5.001036362253937,0.07904608892849513,-0.06326309566372763,0
1298,0.051919999999999966,5.000707572102282,0.07904608892849513,-0.06321682384611105,0
1299,0.051960000000000006,5.000378781950543,0.07740213963881623,-0.061526721872099385,0
1300,0.052000000000000046,5.000378781950543,0.07740213963881623,-0.06148068877215655,0
1301,0.052040000000000086,5.000378781950543,0.07838850921225148,-0.06242114528017992,0
1302,0.052079999999999904,5.000378781950543,0.07838850921225148,-0.062375352698470145,0
1303,0.052119999999999944,4.99972120164681,0.07805971935431567,-0.06200089119072315,0
1304,0.052159999999999984,5.000378781950543,0.07805971935431567,-0.06195534092002755,0
1305,0.052200000000000024,5.000378781950543,0.07773092949650393,-0.06158112261686862,0
1306,0.052240000000000064,4.99972120164681,0.07937487878680298,-0.06317976573241284,0
1307,0.052280000000000104,4.99972120164681,0.07904608892849513,-0.06280579241419282,0
1308,0.05231999999999992,4.99972120164681,0.07904608892849513,-0.0627607321123752,0
1309,0.05235999999999996,5.000049991798719,0.07970366864523482,-0.06337337512764037,0
1310,0.0524,4.99972120164681,0.08036124836247038,-0.0639861421849848,0
1311,0.05244000000000004,4.999063621342738,0.07970366864523482,-0.06328387428966889,0
1312,0.05248000000000008,5.000378781950543,0.08003245850379062,-0.06356810089116488,0
1313,0.0525199999999999,5.000378781950543,0.08101882808020172,-0.06451003256972414,0
1314,0.05255999999999994,5.000378781950543,0.08101882808020172,-0.06446572046824063,0
1315,0.05259999999999998,4.99972120164681,0.08101882808020172,-0.06442153459925412,0
1316,0.05264000000000002,4.999392411494816,0.07970366864523482,-0.06306231596289,0
1317,0.05268000000000006,5.000378781950543,0.07970366864523482,-0.06301838386313333,0
1318,0.0527200000000001,4.99972120164681,0.08003245850379062,-0.06330336915657858,0
1319,0.05275999999999992,4.99972120164681,0.07904608892849513,-0.06227332298277383,0
1320,0.05279999999999996,4.99972120164681,0.07904608892849513,-0.0622297747817658,0
1321,0.05284,5.000049991798719,0.07740213963881623,-0.06054240611842031,0
1322,0.05288000000000004,5.000049991798719,0.07773092949650393,-0.06082790585855858,0
1323,0.05292000000000008,5.000049991798719,0.07773092949650393,-0.06078474542483298,0
1324,0.052959999999999896,4.99972120164681,0.0770733497812526,-0.060084135386312895,0
1325,0.052999999999999936,5.000378781950543,0.07740213963881623,-0.0603700254566193,0
1326,0.053039999999999976,5.001365152405508,0.07805971935431567,-0.06098483634534483,0
1327,0.053080000000000016,5.000378781950543,0.0770733497812526,-0.0599558293293754,0
1328,0.053120000000000056,5.000049991798719,0.07805971935431567,-0.060899693265691696,0
1329,0.053160000000000096,4.99972120164681,0.07773092949650393,-0.06052852999848827,0
1330,0.053199999999999914,5.000049991798719,0.07773092949650393,-0.060486289236546004,0
1331,0.053239999999999954,4.998734831190575,0.0770733497812526,-0.05978660182579031,0
1332,0.053279999999999994,5.000378781950543,0.0770733497812526,-0.05974462761460174,0
1333,0.053320000000000034,4.999063621342738,0.0770733497812526,-0.059702787304491745,0
1334,0.053360000000000074,5.000049991798719,0.07641577006649763,-0.05900350159634847,0
1335,0.053400000000000114,5.000378781950543,0.07641577006649763,-0.05896193033420065,0
1336,0.05343999999999993,5.000378781950543,0.07641577006649763,-0.05892049421668334,0
1337,0.05347999999999997,4.99972120164681,0.07641577006649763,-0.058879193656053215,0
1338,0.05352000000000001,5.000049991798719,0.07641577006649763,-0.05883802906342905,0
1339,0.05356000000000005,5.000049991798719,0.07674455992381307,-0.059125790706102695,0
1340,0.05360000000000009,4.99972120164681,0.0760869802093063,-0.05842731956376604,0
1341,0.05363999999999991,4.998734831190575,0.0760869802093063,-0.058386565330426014,0
1342,0.05367999999999995,4.99972120164681,0.07542940049529606,-0.05768836898408748,0
1343,0.05371999999999999,5.000378781950543,0.07477182078178243,-0.05699031064461853,0
1344,0.05376000000000003,4.99972120164681,0.07641577006649763,-0.05859391971394752,0
1345,0.05380000000000007,5.000707572102282,0.07641577006649763,-0.058553718312157096,0
1346,0.05384000000000011,5.000378781950543,0.07641577006649763,-0.058513656125815175,0
1347,0.05387999999999993,5.000378781950543,0.07838850921225148,-0.060446472701349875,0
1348,0.05391999999999997,5.002022732708393,0.07805971935431567,-0.06007790028880908,0
1349,0.05396000000000001,5.000378781950543,0.07805971935431567,-0.06003825814812218,0
1350,0.05400000000000005,5.000049991798719,0.08003245850379062,-0.061971495967940424,0
1351,0.05404000000000009,4.99972120164681,0.07904608892849513,-0.060945766269934226,0
1352,0.054079999999999906,5.000049991798719,0.08036124836247038,-0.062221707182859735,0
1353,0.054119999999999946,5.000378781950543,0.0787172990703113,-0.06053868136482168,0
1354,0.054159999999999986,5.000049991798719,0.0787172990703113,-0.06049974722641365,0
1355,0.054200000000000026,4.99972120164681,0.0787172990703113,-0.060460955866562804,0
1356,0.054240000000000066,5.000049991798719,0.07838850921225148,-0.060093517817077315,0
1357,0.054280000000000106,5.000378781950543,0.07838850921225148,-0.06005501318272232,0
1358,0.054319999999999924,5.000049991798719,0.07740213963881623,-0.05903028291942139,0
1359,0.054359999999999964,5.000707572102282,0.07805971935431567,-0.05964964627573199,0
1360,0.054400000000000004,5.000378781950543,0.07773092949650393,-0.0592827847743605,0
1361,0.054440000000000044,4.99972120164681,0.07641577006649763,-0.057929698800136084,0
1362,0.054480000000000084,5.000378781950543,0.07542940049529606,-0.05690554816652666,0
1363,0.0545199999999999,4.998406041038327,0.07542940049529606,-0.05686791296714949,0
1364,0.05455999999999994,4.99972120164681,0.0757581903522391,-0.05715921386771397,0
1365,0.05459999999999998,5.000049991798719,0.07411424106876553,-0.05547792224957168,0
1366,0.05464000000000002,5.000049991798719,0.07411424106876553,-0.055440726914062995,0
1367,0.05468000000000006,5.000378781950543,0.0737854512124434,-0.055074889097577136,0
1368,0.0547200000000001,5.000707572102282,0.07411424106876553,-0.055366778743996016,0
1369,0.05475999999999992,5.000707572102282,0.0737854512124434,-0.05500123680167287,0
1370,0.05479999999999996,5.000707572102282,0.07279908164422239,-0.053978263643716856,0
1371,0.05484,5.000378781950543,0.0737854512124434,-0.054928178489550436,0
1372,0.05488000000000004,5.000049991798719,0.07247029178839723,-0.05357671358025951,0
1373,0.05492000000000008,5.000707572102282,0.07115513236633955,-0.052225398278604326,0
1374,0.0549599999999999,4.99972120164681,0.07049755265605667,-0.05153181266158101,0
1375,0.05499999999999994,5.000378781950543,0.06885360338252611,-0.04985200782007802,0
1376,0.05503999999999998,4.999392411494816,0.06819602367398483,-0.049158723246940206,0
1377,0.05508000000000002,5.000378781950543,0.0672096541121064,-0.048136799887141764,0
1378,0.05512000000000006,5.001693942556992,0.06589449469801162,-0.046786238103792926,0
1379,0.0551600000000001,5.000049991798719,0.06359296572814185,-0.0444494585540092,0
1380,0.055199999999999916,4.99972120164681,0.0626065961714958,-0.043427990566144006,0
1381,0.055239999999999956,4.99972120164681,0.06030506721035353,-0.04109151568050866,0
1382,0.055279999999999996,5.000378781950543,0.05931869765744993,-0.040070353066541685,0
1383,0.055320000000000036,4.99972120164681,0.05800353825532628,-0.0387205538221564,0
1384,0.055360000000000076,4.99972120164681,0.05734595855501376,-0.038028487852420266,0
1385,0.055400000000000116,4.99972120164681,0.05438684990979273,-0.03503504686331018,0
