,seconds,Trig,EMG_amplitude,EMG_amplitude_filter,peaks
0,0.0,4.99972120164681,0.013616909611190692,-0.02644364118758342,0
1,4.0000000000040004e-05,5.000378781950543,0.01295932994485767,-0.025806352122422882,0
2,8.000000000008001e-05,5.000378781950543,0.01295932994485767,-0.025826541201530787,0
3,0.00011999999999989797,5.000378781950543,0.013616909611190692,-0.0265042082660399,0
4,0.00015999999999993797,5.000378781950543,0.014603279111640999,-0.027510563325652587,0
5,0.00019999999999997797,5.000707572102282,0.014603279111640999,-0.027530446888506897,0
6,0.00024000000000001798,4.99972120164681,0.01328811977796078,-0.026235068964868328,0
7,0.000280000000000058,4.998077250885994,0.013616909611190692,-0.026583537899614585,0
8,0.000320000000000098,5.000378781950543,0.013616909611190692,-0.026603114537687086,0
9,0.00035999999999991594,5.000049991798719,0.011644170613713423,-0.0246498495607162,0
10,0.00039999999999995595,5.001036362253937,0.011972960446309217,-0.024998010642928392,0
11,0.00043999999999999595,5.000378781950543,0.01328811977796078,-0.02633243830078306,0
12,0.00048000000000003595,5.000378781950543,0.011315380781244458,-0.024378864555135958,0
13,0.000520000000000076,5.001036362253937,0.011972960446309217,-0.025055506245220287,0
14,0.0005599999999998939,4.998077250885994,0.011644170613713423,-0.024745675061485613,0
15,0.0005999999999999339,5.000378781950543,0.010986590948902406,-0.024106950520077587,0
16,0.0006399999999999739,5.000378781950543,0.011972960446309217,-0.025112071466940798,0
17,0.0006800000000000139,5.001693942556992,0.01065780111668721,-0.023815559765153496,0
18,0.0007200000000000539,5.000049991798719,0.011972960446309217,-0.025149262754128855,0
19,0.0007600000000000939,5.000049991798719,0.01065780111668721,-0.023852542969336747,0
20,0.0007999999999999119,5.000378781950543,0.012630540111881347,-0.02584361724961488,0
21,0.0008399999999999519,5.001036362253937,0.01295932994485767,-0.026190637963528576,0
22,0.0008799999999999919,4.998406041038327,0.013616909611190692,-0.026866343963075388,0
23,0.0009200000000000319,5.000049991798719,0.013945699444547363,-0.02721315543917116,0
24,0.0009600000000000719,5.000707572102282,0.014274489278030808,-0.02755986208299584,0
25,0.001000000000000112,5.000707572102282,0.015589648613231935,-0.028892833255047108,0
26,0.0010399999999999299,4.99972120164681,0.016904807950460177,-0.030225699315373136,0
27,0.0010799999999999699,5.000378781950543,0.017233597785083862,-0.030572090619915,0
28,0.0011200000000000099,5.000707572102282,0.017233597785083862,-0.030589586698062412,0
29,0.0011600000000000499,5.000049991798719,0.01756238761983417,-0.030935767081436357,0
30,0.0012000000000000899,5.000049991798719,0.017233597785083862,-0.030624262128873116,0
31,0.0012399999999999078,5.000049991798719,0.016904807950460177,-0.030312651373929345,0
32,0.0012799999999999478,5.000378781950543,0.01756238761983417,-0.0309873041852497,0
33,0.0013199999999999878,5.000378781950543,0.017233597785083862,-0.03067548142033198,0
34,0.0013600000000000279,5.000378781950543,0.01756238761983417,-0.031021132119268973,0
35,0.0014000000000000679,5.000049991798719,0.015918438447348998,-0.029393937472642614,0
36,0.0014400000000001079,5.000049991798719,0.016247228281592724,-0.02973937536258746,0
37,0.0014799999999999258,5.000049991798719,0.016904807950460177,-0.03041349648602264,0
38,0.0015199999999999658,4.99972120164681,0.015589648613231935,-0.02911477187210915,0
39,0.0015600000000000058,4.99972120164681,0.014932068945377922,-0.028473520067055353,0
40,0.0016000000000000458,4.99972120164681,0.013616909611190692,-0.027174581606752197,0
41,0.0016400000000000858,4.999392411494816,0.01295932994485767,-0.026533115697847404,0
42,0.0016799999999999038,5.000049991798719,0.012301750279031881,-0.025891542546318144,0
43,0.0017199999999999438,5.000378781950543,0.01065780111668721,-0.024263492529328183,0
44,0.0017599999999999838,5.000049991798719,0.008027482463535476,-0.021648965527646908,0
45,0.0018000000000000238,5.000378781950543,0.008356272294735026,-0.021993439392359804,0
46,0.0018400000000000638,5.000049991798719,0.006383533309443135,-0.020036276699422807,0
47,0.0018800000000001038,5.001365152405508,0.00506837398845672,-0.01873658580730487,0
48,0.0019199999999999218,4.99972120164681,0.004739584158527918,-0.018423156421305462,0
49,0.0019599999999999618,5.000049991798719,0.0014516858662357995,-0.015150510467428156,0
50,0.0020000000000000018,5.001036362253937,0.0004653163810297567,-0.01417928509542584,0
51,0.0020400000000000418,5.001036362253937,-0.0024937920677107622,-0.011235212415862384,0
52,0.002080000000000082,4.998406041038327,-0.0024937920677107622,-0.011250139723079925,0
53,0.0021199999999998997,5.000378781950543,-0.0047953208540382625,-0.008963429664962167,0
54,0.0021599999999999397,5.004981844067175,-0.004466531027802631,-0.009306929524237884,0
55,0.0021999999999999797,4.99972120164681,-0.0031513717215847087,-0.010636690053052653,0
56,0.0022400000000000198,5.000049991798719,-0.005124110680146385,-0.008678443392261093,0
57,0.0022800000000000598,4.99643330012306,-0.00348016154833046,-0.0103367757835288,0
58,0.0023200000000000998,4.99972120164681,-0.001178632758433426,-0.012652578681961433,0
59,0.0023599999999999177,5.003009103162085,-0.004466531027802631,-0.009378845258509318,0
60,0.0023999999999999577,4.99972120164681,-0.004466531027802631,-0.009392900731002914,0
61,0.0024399999999999977,4.999063621342738,-0.00348016154833046,-0.010393216199639347,0
62,0.0024800000000000377,4.99972120164681,-0.003808951374948702,-0.010078262769851156,0
63,0.0025200000000000777,5.000049991798719,-0.005452900506126915,-0.008448040335066631,0
64,0.0025599999999998957,5.000378781950543,-0.005452900506126915,-0.008461657223826309,0
65,0.0025999999999999357,5.000378781950543,-0.006439269983302923,-0.007488794721484594,0
66,0.0026399999999999757,4.999392411494816,-0.007096849634115457,-0.006844612026197627,0
67,0.0026800000000000157,5.000378781950543,-0.00808321910937683,-0.00587152938267951,0
68,0.0027200000000000557,5.000378781950543,-0.00874079875891258,-0.005227126337542555,0
69,0.0027600000000000957,5.000049991798719,-0.00808321910937683,-0.005897772261483688,0
70,0.0027999999999999137,5.000049991798719,-0.007754429284417372,-0.006239517929121061,0
71,0.0028399999999999537,5.000378781950543,-0.0090695885834889,-0.0049372039401824885,0
72,0.0028799999999999937,5.000049991798719,-0.010384747880516562,-0.003634779320843589,0
73,0.0029200000000000337,4.999063621342738,-0.010055958056451306,-0.003976193091174151,0
74,0.0029600000000000737,5.000378781950543,-0.011042327528263687,-0.0030023367361460343,0
75,0.0029999999999998916,4.99972120164681,-0.010384747880516562,-0.0036723185740621424,0
76,0.0030399999999999316,5.000378781950543,-0.010384747880516562,-0.0036846097414066255,0
77,0.0030799999999999716,5.000707572102282,-0.0113711173519455,-0.002710420319215149,0
78,0.0031200000000000117,5.000378781950543,-0.00939837840793746,-0.004695228099999428,0
79,0.0031600000000000517,4.99972120164681,-0.0113711173519455,-0.002734446686882209,0
80,0.0032000000000000917,5.000378781950543,-0.012028696998925656,-0.00208871317241488,0
81,0.0032399999999999096,5.000707572102282,-0.01301506646843685,-0.0011140783454792053,0
82,0.0032799999999999496,4.99972120164681,-0.014330225759327644,0.00018945788339784844,0
83,0.0033199999999999896,5.000707572102282,-0.014330225759327644,0.00017794649163392282,0
84,0.0033600000000000296,5.000378781950543,-0.012357486822223915,-0.0018061920782338863,0
85,0.0034000000000000696,5.000378781950543,-0.014659015581730453,0.00048404889531888234,0
86,0.0034400000000001096,5.000049991798719,-0.015316595226152155,0.0011304526874664766,0
87,0.0034799999999999276,5.000707572102282,-0.01564538504817102,0.001448178676817527,0
88,0.0035199999999999676,5.001365152405508,-0.01696054433496612,0.002752386235533439,0
89,0.0035600000000000076,5.000049991798719,-0.018275703619711994,0.0040567059808252585,0
90,0.0036000000000000476,5.000049991798719,-0.01860449344057817,0.004374768533951606,0
91,0.0036400000000000876,5.000049991798719,-0.018933283261316228,0.0046929434408042,0
92,0.0036799999999999056,4.99972120164681,-0.019590862902407788,0.005340020603054347,0
93,0.0037199999999999456,5.000049991798719,-0.019590862902407788,0.005329630639494685,0
94,0.0037599999999999856,5.000378781950543,-0.01926207308192608,0.004990563450019286,0
95,0.0038000000000000256,5.002351522859708,-0.01991965272276132,0.005637978394756021,0
96,0.0038400000000000656,5.000707572102282,-0.020577232363083744,0.006285506089247866,0
97,0.0038800000000001056,5.000049991798719,-0.020248442542986647,0.005946777150002906,0
98,0.0039199999999999235,5.000378781950543,-0.02090602218305261,0.00659453057305916,0
99,0.0039599999999999635,5.001036362253937,-0.02090602218305261,0.006584817332682222,0
100,0.0040000000000000036,5.000378781950543,-0.02090602218305261,0.006575217142470446,0
101,0.0040400000000000436,4.99972120164681,-0.021234812002893247,0.006894519894833237,0
102,0.0040800000000000836,4.99972120164681,-0.020577232363083744,0.006227566381883522,0
103,0.0041199999999999015,4.998077250885994,-0.0228787611001723,0.008519834510806672,0
104,0.0041599999999999415,5.000707572102282,-0.0228787611001723,0.008510687237285326,0
105,0.0041999999999999815,5.000378781950543,-0.02320755091924319,0.008830443186178809,0
106,0.0042400000000000215,5.000049991798719,-0.023536340738185738,0.00915031260601699,0
107,0.0042800000000000615,4.999063621342738,-0.023536340738185738,0.009141505744742668,0
108,0.0043200000000001015,5.000378781950543,-0.023536340738185738,0.009132812487081931,0
109,0.0043599999999999195,4.99972120164681,-0.024522710194243194,0.010110602353901002,0
110,0.0043999999999999595,4.998406041038327,-0.025180289830972882,0.010759716133647283,0
111,0.0044399999999999995,4.99972120164681,-0.023536340738185738,0.009107414978986862,0
112,0.0044800000000000395,5.000378781950543,-0.022221181461645576,0.007784017497559914,0
113,0.0045200000000000795,5.000049991798719,-0.021563601822605624,0.007118313571515832,0
114,0.0045599999999998975,5.000378781950543,-0.021234812002893247,0.006781513442596667,0
115,0.0045999999999999375,4.99972120164681,-0.02090602218305261,0.006444827350278445,0
116,0.0046399999999999775,4.99972120164681,-0.018933283261316228,0.004464306250741418,0
117,0.0046800000000000175,5.000049991798719,-0.018275703619711994,0.0037990585829758214,0
118,0.0047200000000000575,4.99972120164681,-0.017618123977595282,0.0031339251223126505,0
119,0.0047600000000000975,4.99972120164681,-0.01630296469182467,0.0018113262805981942,0
120,0.0047999999999999154,5.000378781950543,-0.01630296469182467,0.0018040010412554621,0
121,0.0048399999999999554,4.99972120164681,-0.01564538504817102,0.0011392105278681952,0
122,0.0048799999999999955,5.000049991798719,-0.01696054433496612,0.0024472733665550743,0
123,0.0049200000000000355,5.001365152405508,-0.017618123977595282,0.003097871033724754,0
124,0.0049600000000000755,5.000049991798719,-0.017946913798717698,0.003419793402065597,0
125,0.004999999999999893,5.000378781950543,-0.01991965272276132,0.005385779445039353,0
126,0.005039999999999933,5.000049991798719,-0.019590862902407788,0.005050351363364923,0
127,0.005079999999999973,5.000378781950543,-0.020248442542986647,0.00570140740941142,0
128,0.005120000000000013,5.000049991798719,-0.020577232363083744,0.0060237883478053734,0
129,0.005160000000000053,4.99972120164681,-0.020577232363083744,0.006017494223972079,0
130,0.0052000000000000934,5.000378781950543,-0.0228787611001723,0.008312843639136626,0
131,0.005239999999999911,4.99972120164681,-0.022549971280973066,0.007977989342959752,0
132,0.005279999999999951,4.999392411494816,-0.023865130556999917,0.009287199028988922,0
133,0.005319999999999991,5.000378781950543,-0.025509079649145103,0.010925313459145387,0
134,0.005360000000000031,5.000049991798719,-0.023865130556999917,0.009275644673043728,0
135,0.005400000000000071,5.000378781950543,-0.025509079649145103,0.01091398907828111,0
136,0.005440000000000111,5.000378781950543,-0.024193920375685754,0.009593340162971128,0
137,0.005479999999999929,4.99972120164681,-0.0228787611001723,0.008272806327663657,0
138,0.005519999999999969,5.000378781950543,-0.02320755091924319,0.008596336704986517,0
139,0.005560000000000009,4.998734831190575,-0.023536340738185738,0.008919982235205261,0
140,0.005600000000000049,5.000378781950543,-0.021892391642189743,0.007271004037475756,0
141,0.005640000000000089,5.000049991798719,-0.0228787611001723,0.008252459613667907,0
142,0.005679999999999907,5.000707572102282,-0.020577232363083744,0.005946132246670552,0
143,0.005719999999999947,4.99972120164681,-0.02090602218305261,0.006270238719535403,0
144,0.005759999999999987,5.000378781950543,-0.018933283261316228,0.004292931763406673,0
145,0.005800000000000027,5.000378781950543,-0.01926207308192608,0.004617268891225414,0
146,0.005840000000000067,5.000378781950543,-0.01926207308192608,0.0046129315679067865,0
147,0.005880000000000107,4.99972120164681,-0.01860449344057817,0.003951129999564677,0
148,0.005919999999999925,4.999392411494816,-0.017946913798717698,0.0032894438528660985,0
149,0.005959999999999965,5.000707572102282,-0.018933283261316228,0.00427182225759307,0
150,0.006000000000000005,4.99972120164681,-0.01630296469182467,0.0016376281009848085,0
151,0.006040000000000045,5.000378781950543,-0.017946913798717698,0.003277817114281177,0
152,0.006080000000000085,4.99972120164681,-0.01630296469182467,0.0016302234290527197,0
153,0.006119999999999903,5.000378781950543,-0.01564538504817102,0.000969114743041107,0
154,0.006159999999999943,4.998734831190575,-0.015316595226152155,0.0006369114343321314,0
155,0.006199999999999983,5.000378781950543,-0.015316595226152155,0.0006336135219735268,0
156,0.006240000000000023,5.000378781950543,-0.014330225759327644,-0.00035593826524205193,0
157,0.006280000000000063,5.000707572102282,-0.01301506646843685,-0.0016741642679488369,0
158,0.006320000000000103,5.000049991798719,-0.0116999071754995,-0.0029922746485489017,0
159,0.006359999999999921,5.000378781950543,-0.0116999071754995,-0.0029951100975103336,0
160,0.006399999999999961,5.000049991798719,-0.009727168232258263,-0.004970568837494723,0
161,0.006440000000000001,5.000049991798719,-0.007425639459330238,-0.007274701742462458,0
162,0.006480000000000041,5.000378781950543,-0.006439269983302923,-0.008263559674373519,0
163,0.006520000000000081,5.000378781950543,-0.005124110680146385,-0.009581091746838764,0
164,0.006559999999999899,4.99972120164681,-0.004466531027802631,-0.010240928472531361,0
165,0.006599999999999939,5.000378781950543,-0.004466531027802631,-0.010243069841570522,0
166,0.006639999999999979,5.000378781950543,-0.003808951374948702,-0.010902675151839902,0
167,0.006680000000000019,5.000378781950543,-0.004137741201439435,-0.010575795264863411,0
168,0.006720000000000059,5.000707572102282,-0.005124110680146385,-0.009591220002529263,0
169,0.006760000000000099,4.999392411494816,-0.006110480157705198,-0.008606529013999574,0
170,0.006799999999999917,5.000378781950543,-0.007754429284417372,-0.006964142645809335,0
171,0.006839999999999957,5.000049991798719,-0.00939837840793746,-0.005321640548179921,0
172,0.006879999999999997,5.000049991798719,-0.010384747880516562,-0.004336602367776297,0
173,0.006920000000000037,5.000707572102282,-0.014001435936796827,-0.0007211298699132096,0
174,0.006960000000000077,5.000049991798719,-0.01630296469182467,0.0015792990594573658,0
175,0.006999999999999895,5.000049991798719,-0.018933283261316228,0.004208633534011006,0
176,0.007039999999999935,4.999392411494816,-0.021892391642189743,0.007166873547582562,0
177,0.007079999999999975,5.000378781950543,-0.023865130556999917,0.009138859818599864,0
178,0.007120000000000015,4.99972120164681,-0.025509079649145103,0.010782171985290287,0
179,0.007160000000000055,4.99972120164681,-0.02715302873807933,0.012425599860892167,0
180,0.007200000000000095,5.000049991798719,-0.029125767640559533,0.014397933254901409,0
181,0.007239999999999913,5.000049991798719,-0.030769716722423582,0.016041592524848984,0
182,0.007279999999999953,4.999392411494816,-0.03142729635426868,0.016698998031978655,0
183,0.007319999999999993,5.000049991798719,-0.031756086169998185,0.017027729399793308,0
184,0.007360000000000033,5.001693942556992,-0.03208487598559902,0.017356576432831727,0
185,0.007400000000000073,4.99972120164681,-0.031756086169998185,0.01702795948752463,0
186,0.007440000000000113,5.000378781950543,-0.03241366580107112,0.017685827628202384,0
187,0.007479999999999931,4.999063621342738,-0.03208487598559902,0.01735744194705185,0
188,0.007519999999999971,5.000378781950543,-0.029783347273691016,0.015056432978538106,0
189,0.007560000000000011,5.001036362253937,-0.029125767640559533,0.014399488681179243,0
190,0.007600000000000051,5.000378781950543,-0.02781060837275358,0.013085080323779207,0
191,0.007640000000000091,5.002351522859708,-0.026166659285104213,0.011441997702372758,0
192,0.007679999999999909,5.000378781950543,-0.025180289830972882,0.010456610250473388,0
193,0.007719999999999949,5.000049991798719,-0.022221181461645576,0.00749859939846702,0
194,0.007759999999999989,5.000378781950543,-0.021892391642189743,0.007171022589468457,0
195,0.007800000000000029,4.99972120164681,-0.021563601822605624,0.006843561250472292,0
196,0.00784000000000007,4.99972120164681,-0.022221181461645576,0.0075025848161718155,0
197,0.00788000000000011,4.99972120164681,-0.021892391642189743,0.007175354344334285,0
198,0.007919999999999927,4.999392411494816,-0.022221181461645576,0.007505818906200045,0
199,0.007959999999999967,4.99972120164681,-0.022221181461645576,0.00750760901617988,0
200,0.008000000000000007,5.000049991798719,-0.02320755091924319,0.008495883923050552,0
201,0.008040000000000047,5.000378781950543,-0.022221181461645576,0.007511535224687201,0
202,0.008080000000000087,5.000049991798719,-0.022221181461645576,0.007513671263494952,0
203,0.008119999999999905,5.000049991798719,-0.023536340738185738,0.0088310818269726,0
204,0.008159999999999945,5.001036362253937,-0.023536340738185738,0.008833448329539695,0
205,0.008199999999999985,5.001036362253937,-0.024193920375685754,0.009493509651679558,0
206,0.008240000000000025,5.000378781950543,-0.026166659285104213,0.011468845393196722,0
207,0.008280000000000065,5.000378781950543,-0.026495449102891075,0.011800347154869927,0
208,0.008320000000000105,5.000049991798719,-0.02781060837275358,0.013118333443677604,0
209,0.008359999999999923,4.99972120164681,-0.02781060837275358,0.013121275499894882,0
210,0.008399999999999963,4.999392411494816,-0.027481818555480722,0.012795542737266533,0
211,0.008440000000000003,5.000378781950543,-0.029125767640559533,0.014442663835513805,0
212,0.008480000000000043,5.000378781950543,-0.029783347273691016,0.01510353039937578,0
213,0.008520000000000083,4.99972120164681,-0.03044092690630805,0.015764511838264585,0
214,0.008559999999999901,5.000049991798719,-0.030769716722423582,0.016096818293113407,0
215,0.008599999999999941,5.000378781950543,-0.03142729635426868,0.01675802935201441,0
216,0.008639999999999981,5.000049991798719,-0.029125767640559533,0.014460246808485499,0
217,0.008680000000000021,5.000049991798719,-0.03044092690630805,0.015779266941280703,0
218,0.008720000000000061,4.99972120164681,-0.030112137090063842,0.015454452641632043,0
219,0.008760000000000101,4.99972120164681,-0.03044092690630805,0.015787332575643246,0
220,0.008799999999999919,4.998734831190575,-0.030112137090063842,0.015462747428900102,0
221,0.008839999999999959,5.000378781950543,-0.03044092690630805,0.015795856415881993,0
222,0.008879999999999999,4.99972120164681,-0.031098506538410467,0.016457869668401067,0
223,0.008920000000000039,5.000049991798719,-0.03044092690630805,0.01580483805377637,0
224,0.008960000000000079,5.000049991798719,-0.03241366580107112,0.01778223930939996,0
225,0.008999999999999897,4.99972120164681,-0.03340003524671499,0.018773385404548523,0
226,0.009039999999999937,5.000378781950543,-0.03372882506167206,0.01910706610185539,0
227,0.009079999999999977,5.000378781950543,-0.03603035376276496,0.021413599861283647,0
228,0.009120000000000017,5.001693942556992,-0.03668793339048888,0.02207629866540842,0
229,0.009160000000000057,4.99972120164681,-0.03931825189622702,0.024711850406632315,0
230,0.009200000000000097,5.000049991798719,-0.04096220095812057,0.02636114670305539,0
231,0.009239999999999915,5.000378781950543,-0.04194857039370768,0.027352977311114086,0
232,0.009279999999999955,4.999392411494816,-0.04359251945043667,0.02900250141609449,0
233,0.009319999999999995,4.99972120164681,-0.046551627744407784,0.03196729857087412,0
234,0.009360000000000035,5.001036362253937,-0.04589404812443025,0.03131552155997908,0
235,0.009400000000000075,5.003009103162085,-0.047537997173404054,0.03296538690096597,0
236,0.009439999999999893,5.000049991798719,-0.04852436660123595,0.033957786237337875,0
237,0.009479999999999933,5.000049991798719,-0.04852436660123595,0.03396392969494107,0
238,0.009519999999999973,5.000049991798719,-0.04852436660123595,0.03397018663308366,0
239,0.009560000000000013,5.000378781950543,-0.047537997173404054,0.03299018755435,0
240,0.009600000000000053,5.000378781950543,-0.046880417554202566,0.03233909162455874,0
241,0.009640000000000093,5.000378781950543,-0.04786678698281073,0.0333320580111857,0
242,0.009679999999999911,4.999392411494816,-0.046551627744407784,0.0320236089266471,0
243,0.009719999999999951,5.000049991798719,-0.046551627744407784,0.03203043220253454,0
244,0.009759999999999991,5.000378781950543,-0.046551627744407784,0.032037368525563464,0
245,0.009800000000000031,5.000049991798719,-0.044907678693494255,0.030400468768879745,0
246,0.009840000000000071,5.000378781950543,-0.04523646850393555,0.030736420767752317,0
247,0.009880000000000111,5.000049991798719,-0.044907678693494255,0.03041490596188574,0
248,0.009919999999999929,4.99972120164681,-0.04392130926139491,0.029435924271388136,0
249,0.009959999999999969,5.000378781950543,-0.04359251945043667,0.029114634858884138,0
250,0.010000000000000009,5.001036362253937,-0.04326372963934923,0.028793458021871,0
251,0.010040000000000049,4.99972120164681,-0.04030462133375036,0.025842075183676424,0
252,0.010080000000000089,5.000378781950543,-0.04260615001678679,0.02815144174409962,0
253,0.010119999999999907,5.000049991798719,-0.04096220095812057,0.026515442888398015,0
254,0.010159999999999947,4.99972120164681,-0.03931825189622702,0.024879556269585525,0
255,0.010199999999999987,5.000049991798719,-0.03931825189622702,0.024887730866265133,0
256,0.010240000000000027,4.999392411494816,-0.03635914357669136,0.02193690920943356,0
257,0.010280000000000067,4.999392411494816,-0.03668793339048888,0.022274097663329682,0
258,0.010320000000000107,5.000707572102282,-0.035043984320212454,0.020638659120860835,0
259,0.010359999999999925,5.000378781950543,-0.03241366580107112,0.018016962926495367,0
260,0.010399999999999965,4.998734831190575,-0.0340576148765004,0.01966964603187331,0
261,0.010440000000000005,4.998734831190575,-0.029783347273691016,0.015404224071335508,0
262,0.010480000000000045,5.000707572102282,-0.029783347273691016,0.015413181232026105,0
263,0.010520000000000085,4.99643330012306,-0.028796977823800904,0.014435880366288116,0
264,0.010559999999999903,5.001693942556992,-0.03142729635426868,0.017075378808358875,0
265,0.010599999999999943,4.998406041038327,-0.027481818555480722,0.013139192151561355,0
266,0.010639999999999983,5.001693942556992,-0.024851500012672237,0.01051827588301503,0
267,0.010680000000000023,4.99972120164681,-0.026495449102891075,0.012171738280600159,0
268,0.010720000000000063,4.997419670581074,-0.025509079649145103,0.011194993067105665,0
269,0.010760000000000103,4.999392411494816,-0.022221181461645576,0.007916829951472987,0
270,0.01079999999999992,4.999063621342738,-0.01926207308192608,0.004967567372915517,0
271,0.01083999999999996,5.000049991798719,-0.019590862902407788,0.005306313620484417,0
272,0.01088,5.000378781950543,-0.0166317545134594,0.00235727218012911,0
273,0.01092000000000004,5.000378781950543,-0.015316595226152155,0.0010522902574528203,0
274,0.01096000000000008,4.99972120164681,-0.013672646114138112,-0.0005813711804085568,0
275,0.010999999999999899,5.000378781950543,-0.012357486822223915,-0.001886132596212127,0
276,0.011039999999999939,5.000707572102282,-0.010713537704454032,-0.0035195737445242285,0
277,0.011079999999999979,5.000378781950543,-0.010055958056451306,-0.004166535439379289,0
278,0.011120000000000019,5.000378781950543,-0.010713537704454032,-0.003498227965242122,0
279,0.011160000000000059,5.000378781950543,-0.011042327528263687,-0.003158600554059622,0
280,0.011200000000000099,4.999063621342738,-0.012028696998925656,-0.0021612838475794406,0
281,0.011239999999999917,5.000049991798719,-0.012357486822223915,-0.0018214372538546582,0
282,0.011279999999999957,5.000378781950543,-0.013672646114138112,-0.0004951117717860477,0
283,0.011319999999999997,5.000378781950543,-0.014330225759327644,0.00017374336736265816,0
284,0.011360000000000037,5.000049991798719,-0.0166317545134594,0.0024866568022931836,0
285,0.011400000000000077,5.000378781950543,-0.017289334156344746,0.0031557301948104063,0
286,0.011439999999999895,5.000378781950543,-0.01926207308192608,0.005140071819809626,0
287,0.011479999999999935,5.000378781950543,-0.022221181461645576,0.008110891728646045,0
288,0.011519999999999975,5.000378781950543,-0.022221181461645576,0.008122711966335917,0
289,0.011560000000000015,4.99972120164681,-0.024193920375685754,0.01010737970447448,0
290,0.011600000000000055,4.99972120164681,-0.023536340738185738,0.00946183735427934,0
291,0.011640000000000095,5.000049991798719,-0.025180289830972882,0.011117932073339064,0
292,0.011679999999999913,5.000378781950543,-0.023865130556999917,0.009815026639331651,0
293,0.011719999999999953,4.99972120164681,-0.025837869467188898,0.011800127476869345,0
294,0.011759999999999993,4.998077250885994,-0.026824238920549456,0.012798966817617668,0
295,0.011800000000000033,5.000049991798719,-0.02715302873807933,0.01314033435419677,0
296,0.011840000000000073,4.998734831190575,-0.02781060837275358,0.01381059941017147,0
297,0.011880000000000113,5.000049991798719,-0.02715302873807933,0.013165812768606865,0
298,0.01191999999999993,4.99972120164681,-0.029454557457189598,0.01548024192116305,0
299,0.01195999999999997,4.99972120164681,-0.028796977823800904,0.014835670029053677,0
300,0.01200000000000001,4.99972120164681,-0.029783347273691016,0.01583515439452457,0
301,0.01204000000000005,4.998734831190575,-0.029454557457189598,0.015519586533345273,0
302,0.01208000000000009,5.000049991798719,-0.030769716722423582,0.01684807465805537,0
303,0.012119999999999909,5.000049991798719,-0.031098506538410467,0.017190300101058768,0
304,0.012159999999999949,5.000378781950543,-0.030769716722423582,0.016875052541989885,0
305,0.012199999999999989,5.000049991798719,-0.030769716722423582,0.016888701290146146,0
306,0.012240000000000029,5.000378781950543,-0.03142729635426868,0.0175600360216992,0
307,0.012280000000000069,5.000378781950543,-0.03044092690630805,0.01658752788428936,0
308,0.012320000000000109,5.000378781950543,-0.031756086169998185,0.01791665452764296,0
309,0.012359999999999927,5.001036362253937,-0.030769716722423582,0.01694435838609406,0
310,0.012399999999999967,4.99972120164681,-0.03044092690630805,0.016629747658596816,0
311,0.012440000000000007,5.000049991798719,-0.029783347273691016,0.015986452752402836,0
312,0.012480000000000047,5.000049991798719,-0.029125767640559533,0.015343263337694289,0
313,0.012520000000000087,4.99972120164681,-0.029125767640559533,0.015357758901296242,0
314,0.012559999999999905,5.000049991798719,-0.029125767640559533,0.015372359662241493,0
315,0.012599999999999945,5.000049991798719,-0.028139398189897927,0.014400696021018995,0
316,0.012639999999999985,5.001693942556992,-0.029125767640559533,0.015401876179751507,0
317,0.012680000000000025,5.000049991798719,-0.02715302873807933,0.01344405273310052,0
318,0.012720000000000065,5.000049991798719,-0.02781060837275358,0.01411665241947844,0
319,0.012760000000000105,4.99972120164681,-0.027481818555480722,0.013802987096890722,0
320,0.012799999999999923,5.000378781950543,-0.026824238920549456,0.013160636245725098,0
321,0.012839999999999963,4.99972120164681,-0.026824238920549456,0.013175969163663447,0
322,0.012880000000000003,5.000378781950543,-0.027481818555480722,0.01384898569479238,0
323,0.012920000000000043,5.000049991798719,-0.02781060837275358,0.014193316229604458,0
324,0.012960000000000083,5.000378781950543,-0.02781060837275358,0.014208960610564262,0
325,0.0129999999999999,5.000049991798719,-0.028468188006913683,0.01488228813018188,0
326,0.01303999999999994,4.99972120164681,-0.026824238920549456,0.013254190273849392,0
327,0.01307999999999998,5.000378781950543,-0.026824238920549456,0.013270144687532518,0
328,0.01312000000000002,5.000378781950543,-0.026166659285104213,0.012628622487500915,0
329,0.01316000000000006,5.000378781950543,-0.026495449102891075,0.012973572599514314,0
330,0.0132000000000001,5.000707572102282,-0.026166659285104213,0.012661045770853861,0
331,0.013239999999999919,5.000707572102282,-0.025837869467188898,0.012348621472057697,0
332,0.013279999999999959,4.999392411494816,-0.025509079649145103,0.012036299537225953,0
333,0.013319999999999999,5.000378781950543,-0.025180289830972882,0.011724079799467477,0
334,0.013360000000000039,5.000707572102282,-0.024522710194243194,0.01108317227247205,0
335,0.013400000000000079,4.99972120164681,-0.024851500012672237,0.011428736061086128,0
336,0.013439999999999896,5.000049991798719,-0.024522710194243194,0.011116821903435966,0
337,0.013479999999999936,4.99972120164681,-0.024193920375685754,0.010805009265408588,0
338,0.013519999999999976,5.000707572102282,-0.026166659285104213,0.012794826703281274,0
339,0.013560000000000016,5.000378781950543,-0.026495449102891075,0.013140796224636672,0
340,0.013600000000000056,5.000049991798719,-0.025837869467188898,0.012500497293826079,0
341,0.013640000000000096,5.000378781950543,-0.028139398189897927,0.014819407547978525,0
342,0.013679999999999914,4.999392411494816,-0.028139398189897927,0.014836889730224099,0
343,0.013719999999999954,4.99972120164681,-0.028468188006913683,0.015183262203560956,0
344,0.013759999999999994,5.000049991798719,-0.028139398189897927,0.01487215533923973,0
345,0.013800000000000034,5.001036362253937,-0.029783347273691016,0.016533887493424798,0
346,0.013840000000000074,4.998406041038327,-0.03044092690630805,0.017209350134482927,0
347,0.013879999999999892,5.000707572102282,-0.031756086169998185,0.018542492164044095,0
348,0.013919999999999932,4.999392411494816,-0.03372882506167206,0.020533313397430523,0
349,0.013959999999999972,5.000378781950543,-0.035701563948709644,0.02252423401946609,0
350,0.014000000000000012,5.000049991798719,-0.03603035376276496,0.02287130477828267,0
351,0.014040000000000052,5.000049991798719,-0.03800309264438971,0.024862423629945386,0
352,0.014080000000000092,5.000049991798719,-0.03866067227056637,0.025538482065987335,0
353,0.01411999999999991,4.999392411494816,-0.04030462133375036,0.027201008592453373,0
354,0.01415999999999995,5.000378781950543,-0.04194857039370768,0.028863633581739403,0
355,0.01419999999999999,5.000378781950543,-0.04326372963934923,0.030197567034428306,0
356,0.01424000000000003,5.000378781950543,-0.04359251945043667,0.03054522914099758,0
357,0.01428000000000007,4.99972120164681,-0.04589404812443025,0.03286572800866872,0
358,0.01432000000000011,5.000049991798719,-0.0445788888829237,0.031569636667843924,0
359,0.014359999999999928,5.000049991798719,-0.04523646850393555,0.03224638170439906,0
360,0.014399999999999968,5.000378781950543,-0.047537997173404054,0.03456717311118043,0
361,0.014440000000000008,5.000049991798719,-0.04720920736386795,0.03425774316668725,0
362,0.014480000000000048,5.001036362253937,-0.04786678698281073,0.03493477958341768,0
363,0.014520000000000088,5.000378781950543,-0.047537997173404054,0.03462554330861404,0
364,0.014559999999999906,5.000049991798719,-0.04786678698281073,0.03497398319256746,0
365,0.014599999999999946,4.99972120164681,-0.047537997173404054,0.03466493979983909,0
366,0.014639999999999986,5.000378781950543,-0.046551627744407784,0.033698412930901804,0
367,0.014680000000000026,5.000707572102282,-0.04720920736386795,0.03437593105411387,0
368,0.014720000000000066,5.000378781950543,-0.04786678698281073,0.035053544919878624,0
369,0.014760000000000106,5.000378781950543,-0.04720920736386795,0.034416095089271834,0
370,0.014799999999999924,5.000707572102282,-0.046551627744407784,0.03377874059717429,0
371,0.014839999999999964,5.000049991798719,-0.04622283793448369,0.033470271050222655,0
372,0.014880000000000004,5.000378781950543,-0.04622283793448369,0.0334906862444607,0
373,0.014920000000000044,5.000707572102282,-0.0445788888829237,0.03186724711313448,0
374,0.014960000000000084,4.999392411494816,-0.0445788888829237,0.031887851553170414,0
375,0.014999999999999902,4.997748460733576,-0.04359251945043667,0.03092218087340623,0
376,0.015039999999999942,5.000378781950543,-0.0445788888829237,0.031929343163268,0
377,0.015079999999999982,5.000378781950543,-0.04293493982813261,0.030306280861550728,0
378,0.015120000000000022,5.000049991798719,-0.04293493982813261,0.030327261300455002,0
379,0.015160000000000062,5.001036362253937,-0.04194857039370768,0.02936196577998237,0
380,0.015200000000000102,4.99972120164681,-0.04194857039370768,0.029383132957288432,0
381,0.01523999999999992,5.000049991798719,-0.042277360205311795,0.029733182996948288,0
382,0.01527999999999996,5.000049991798719,-0.04030462133375036,0.027781797190680406,0
383,0.01532,5.000378781950543,-0.039975831521371616,0.02747445306641541,0
384,0.01536000000000004,5.000378781950543,-0.03964704170886384,0.027167201349520352,0
385,0.01540000000000008,4.999392411494816,-0.0389894620834612,0.02653125201100667,0
386,0.015439999999999898,5.000049991798719,-0.0383318824575425,0.0258953946461311,0
387,0.015479999999999938,4.999392411494816,-0.03767430283110791,0.02525962903687446,0
388,0.015519999999999978,5.000049991798719,-0.03767430283110791,0.02528153459127274,0
389,0.015560000000000018,5.001036362253937,-0.03734551301769716,0.024974741649673126,0
390,0.015600000000000058,5.000707572102282,-0.035701563948709644,0.02335288054921127,0
391,0.0156400000000001,4.99972120164681,-0.035372774134525484,0.023046269578680154,0
392,0.015679999999999916,5.000707572102282,-0.035372774134525484,0.023068539074986894,0
393,0.015719999999999956,5.000378781950543,-0.035043984320212454,0.02276210918627626,0
394,0.015759999999999996,5.000049991798719,-0.035043984320212454,0.02278455931693414,0
395,0.015800000000000036,4.999392411494816,-0.035372774134525484,0.023135889241840416,0
396,0.015840000000000076,5.000049991798719,-0.035372774134525484,0.02315851910637117,0
397,0.015879999999999894,5.001365152405508,-0.03603035376276496,0.023838818126205603,0
398,0.015919999999999934,4.999392411494816,-0.03668793339048888,0.024519206444842144,0
399,0.015959999999999974,4.99972120164681,-0.03668793339048888,0.02454210420645493,0
400,0.016000000000000014,5.000378781950543,-0.037016723204157484,0.02489388062295029,0
401,0.016040000000000054,5.000707572102282,-0.0389894620834612,0.02688969471594211,0
402,0.016080000000000094,5.000378781950543,-0.04129099077011207,0.029214386995925764,0
403,0.016119999999999912,5.001693942556992,-0.04326372963934923,0.031210377606061965,0
404,0.016159999999999952,4.999392411494816,-0.045565258314247556,0.03353524593648777,0
405,0.016199999999999992,5.000049991798719,-0.04852436660123595,0.036517781559837176,0
406,0.016240000000000032,5.000378781950543,-0.05148347487774181,0.03950040461888794,0
407,0.016280000000000072,4.99972120164681,-0.05214105449331856,0.040181586227691385,0
408,0.016320000000000112,5.000049991798719,-0.05510016275699865,0.04316438345892778,0
409,0.01635999999999993,5.000378781950543,-0.057730481204784426,0.0458184776113996,0
410,0.01639999999999997,5.000049991798719,-0.06003200983978245,0.04814386845016836,0
411,0.01644000000000001,4.99972120164681,-0.06233353846841526,0.050469345542768856,0
412,0.01648000000000005,5.000707572102282,-0.06397748748496758,0.05213732904375773,0
413,0.01652000000000009,4.99972120164681,-0.06496385689333826,0.05314781871646801,0
414,0.016559999999999908,5.000049991798719,-0.06562143649826817,0.0538296041242394,0
415,0.016599999999999948,5.000049991798719,-0.06693659570656622,0.05516905443164674,0
416,0.016639999999999988,5.000049991798719,-0.06693659570656622,0.055193430583959265,0
417,0.016680000000000028,5.000378781950543,-0.06759417530993413,0.05587547114895047,0
418,0.016720000000000068,4.99972120164681,-0.06693659570656622,0.05524243707179888,0
419,0.016760000000000108,5.001693942556992,-0.06726538550831525,0.05559585671881655,0
420,0.016799999999999926,5.000378781950543,-0.06562143649826817,0.05397662162672937,0
421,0.016839999999999966,4.999392411494816,-0.06562143649826817,0.054001419370201545,0
422,0.016880000000000006,5.001036362253937,-0.06430627728788789,0.05271114148081126,0
423,0.016920000000000046,4.99972120164681,-0.06331990787873677,0.05174973672136055,0
424,0.016960000000000086,4.99972120164681,-0.0629911180754263,0.05144599464684307,0
425,0.016999999999999904,5.000707572102282,-0.06134716905692379,0.04982717618580049,0
426,0.017039999999999944,5.001365152405508,-0.060689589448612954,0.04919480971238576,0
427,0.017079999999999984,5.000378781950543,-0.06134716905692379,0.04987768478099565,0
428,0.017120000000000024,5.000049991798719,-0.06134716905692379,0.04990306231386457,0
429,0.017160000000000064,4.99972120164681,-0.060689589448612954,0.049270942057362266,0
430,0.017200000000000104,5.001036362253937,-0.059703220035172325,0.048310113560245005,0
431,0.017239999999999922,5.000378781950543,-0.05838806081543309,0.04702057656612742,0
432,0.017279999999999962,5.000707572102282,-0.059703220035172325,0.04836143906478087,0
433,0.017320000000000002,5.000049991798719,-0.060689589448612954,0.04937359255363606,0
434,0.017360000000000042,4.99972120164681,-0.0629911180754263,0.051700985794788226,0
435,0.017400000000000082,5.000378781950543,-0.06496385689333826,0.05369966950760595,0
436,0.0174399999999999,5.000049991798719,-0.06660780590468694,0.055369643435291604,0
437,0.01747999999999994,5.000707572102282,-0.07022449371819571,0.059012435926657045,0
438,0.01751999999999998,4.99972120164681,-0.07449876111382696,0.0633128875009801,0
439,0.01756000000000002,5.000378781950543,-0.07778665909545869,0.06662704890068397,0
440,0.01760000000000006,4.99972120164681,-0.08041697747135755,0.06928370967181308,0
441,0.0176400000000001,5.001365152405508,-0.0840336652245519,0.07292681853440902,0
442,0.017679999999999918,5.000049991798719,-0.0843624550195116,0.0732821078891931,0
443,0.017719999999999958,4.99972120164681,-0.08600640399234578,0.0749526346077669,0
444,0.017759999999999998,5.000049991798719,-0.08732156316825516,0.07629444945006761,0
445,0.017800000000000038,5.000378781950543,-0.08666398358056253,0.07566360318340103,0
446,0.017840000000000078,5.000049991798719,-0.08534882440360501,0.07437525471533675,0
447,0.017879999999999896,5.000049991798719,-0.08107455706402487,0.07012787520500172,0
448,0.017919999999999936,5.000707572102282,-0.07482755091257769,0.06390783373489123,0
449,0.017959999999999976,5.000049991798719,-0.06529264669586828,0.05439997078260793,0
450,0.018000000000000016,4.99972120164681,-0.05444258314375501,0.043577024808269124,0
451,0.018040000000000056,4.99972120164681,-0.04096220095812057,0.030123836243280435,0
452,0.018080000000000096,4.99972120164681,-0.026166659285104213,0.01535556396257099,0
453,0.018119999999999914,5.000378781950543,-0.00874079875891258,-0.0020429516715928034,0
454,0.018159999999999954,4.99972120164681,0.007369902801517392,-0.018126233112941495,0
455,0.018199999999999994,5.000049991798719,0.024138184341410046,-0.03486701958009124,0
456,0.018240000000000034,4.998406041038327,0.03893372714954513,-0.049634992635935016,0
457,0.018280000000000074,5.000049991798719,0.05340048036363608,-0.06407410169301773,0
458,0.018320000000000114,5.000707572102282,0.06655207440480995,-0.07719797744801307,0
459,0.018359999999999932,5.000049991798719,0.0787172990703113,-0.08933540997442416,0
460,0.018399999999999972,5.000378781950543,0.08858099486971066,-0.09917124005878886,0
461,0.018440000000000012,5.000378781950543,0.095485581995499,-0.10604788817127114,0
462,0.018480000000000052,4.999392411494816,0.10173258944188096,-0.11226688358445114,0
463,0.018520000000000092,5.001365152405508,0.10600685772026662,-0.11651306708881401,0
464,0.01855999999999991,5.000049991798719,0.10863717667113368,-0.11911522880460917,0
465,0.01859999999999995,4.99972120164681,0.10962354627973452,-0.12007336899755458,0
466,0.01863999999999999,5.000707572102282,0.10896596654054455,-0.1193874879432818,0
467,0.01868000000000003,5.001036362253937,0.10699322732592072,-0.11738637579599148,0
468,0.01872000000000007,4.998734831190575,0.10436290837996715,-0.11472761258231548,0
469,0.01876000000000011,5.000378781950543,0.09745832118428896,-0.10779451006706783,0
470,0.018799999999999928,5.003666683464122,0.09482800226688862,-0.10513560506213773,0
471,0.018839999999999968,4.997748460733576,0.09088252390559022,-0.10116147012991064,0
472,0.018880000000000008,5.003337893313145,0.08200519765772811,-0.09225541711295364,0
473,0.018920000000000048,5.000378781950543,0.07773092949650393,-0.0879523522703694,0
474,0.018960000000000088,5.000378781950543,0.07115513236633955,-0.0813476888331459,0
475,0.018999999999999906,4.99972120164681,0.06326417587580183,-0.07342779669707808,0
476,0.019039999999999946,4.997748460733576,0.054058060060948765,-0.06419267618611058,0
477,0.019079999999999986,4.99972120164681,0.04682468341804723,-0.056930226085052424,0
478,0.019120000000000026,4.9967620902758165,0.04090646620989019,-0.050982866945890784,0
479,0.019160000000000066,4.999392411494816,0.033673089677423634,-0.043720280299414355,0
480,0.019200000000000106,4.99972120164681,0.025453343691792682,-0.03547125630725653,0
481,0.019239999999999924,5.000049991798719,0.017233597785083862,-0.027222164792634347,0
482,0.019279999999999964,4.999063621342738,0.01032901128459894,-0.02028816537461904,0
483,0.019320000000000004,5.000378781950543,0.0014516858662357995,-0.011381360021513649,0
484,0.019360000000000044,5.000707572102282,-0.006768059808773,-0.003132067687588204,0
485,0.019400000000000084,5.000707572102282,-0.01564538504817102,0.0057748706412343,0
486,0.019439999999999902,5.000378781950543,-0.023536340738185738,0.013695505556889082,0
487,0.019479999999999942,5.000378781950543,-0.03241366580107112,0.022602575686715524,0
488,0.019519999999999982,4.999392411494816,-0.04129099077011207,0.03150971126846498,0
489,0.019560000000000022,4.99972120164681,-0.05181226468559495,0.04206086104627471,0
490,0.019600000000000062,5.000049991798719,-0.06003200983978245,0.05031054701564612,0
491,0.019640000000000102,4.99972120164681,-0.07055328351864205,0.06086182616517664,0
492,0.01967999999999992,5.000378781950543,-0.08107455706402487,0.07141316953874186,0
493,0.01971999999999996,5.000378781950543,-0.09060946109885244,0.08097820746068579,0
494,0.01976,4.99972120164681,-0.10080194460026483,0.0912008886089725,0
495,0.01980000000000004,5.000049991798719,-0.11099442797517921,0.10142363309074812,0
496,0.01984000000000008,5.000049991798719,-0.12184449078319924,0.11230402016525357,0
497,0.019879999999999898,5.000049991798719,-0.13400971254782096,0.12449962905503416,0
498,0.019919999999999938,5.000378781950543,-0.14453098527848057,0.13505135146799066,0
499,0.019959999999999978,5.000049991798719,-0.15538104763880373,0.14593192576563246,0
500,0.020000000000000018,4.999063621342738,-0.16886142794382974,0.15944287996030487,0
501,0.020040000000000058,5.000378781950543,-0.18135543875635207,0.17196752631153284,0
502,0.020080000000000098,5.000378781950543,-0.19352065962327597,0.1841634440623819,0
503,0.020119999999999916,5.000049991798719,-0.20897377775410353,0.19964732011794664,0
504,0.020159999999999956,5.000378781950543,-0.2188374700207923,0.20954183104521265,0
505,0.020199999999999996,5.000707572102282,-0.2342905876578798,0.2250258277731841,0
506,0.020240000000000036,4.99972120164681,-0.24744217689741582,0.23820835622781997,0
507,0.020280000000000076,4.997419670581074,-0.2619089248061193,0.252706103169194,0
508,0.020319999999999894,4.999392411494816,-0.27834841074054784,0.26917664764666815,0
509,0.020359999999999934,4.99972120164681,-0.2944591066187571,0.28531846127055555,0
510,0.020399999999999974,4.999392411494816,-0.3125425403677243,0.3034330716595468,0
511,0.020440000000000014,5.000049991798719,-0.33062597369133245,0.321547740208699,0
512,0.020480000000000054,5.000049991798719,-0.3500245653265829,0.34097762534565046,0
513,0.020520000000000094,5.000707572102282,-0.3713958945210345,0.362380306008064,0
514,0.02055999999999991,5.000707572102282,-0.39178085411236785,0.3827966747231945,0
515,0.02059999999999995,5.000707572102282,-0.4138097614355476,0.40485704851505455,0
516,0.02063999999999999,5.000049991798719,-0.4371538266948788,0.4282326372764741,0
517,0.02068000000000003,4.999392411494816,-0.4575387844889738,0.4486491752940709,0
518,0.02072000000000007,4.99972120164681,-0.47792374171890073,0.46906576915640263,0
519,0.02076000000000011,5.000049991798719,-0.498966277619025,0.4901399977848127,0
520,0.02079999999999993,5.000049991798719,-0.5144193895334618,0.5056248582098869,0
521,0.02083999999999997,5.000378781950543,-0.5288861323036679,0.5201234049590486,0
522,0.02088000000000001,5.001036362253937,-0.5403937683911195,0.5316629001792399,0
523,0.02092000000000005,5.000049991798719,-0.5469695603584757,0.5382706061180877,0
524,0.02096000000000009,4.99972120164681,-0.5519014042944771,0.5432344185488066,1
525,0.020999999999999908,4.99972120164681,-0.5515726146997985,0.5429376516560533,0
526,0.021039999999999948,4.999392411494816,-0.5489422979369439,0.540339411485828,0
527,0.021079999999999988,5.000707572102282,-0.5430240851852817,0.5344533289005112,0
528,0.021120000000000028,5.000378781950543,-0.5351331347739482,0.5265945619117731,0
529,0.021160000000000068,4.99972120164681,-0.5255982362449522,0.5170918997436803,0
530,0.021200000000000108,5.000378781950543,-0.515405758367891,0.5069317108474161,0
531,0.021239999999999926,4.99972120164681,-0.5045557011153876,0.4961139948767204,0
532,0.021279999999999966,4.999392411494816,-0.49304806445844596,0.48463875148325,0
533,0.021320000000000006,5.000049991798719,-0.4812116379932484,0.47283476994337964,0
534,0.021360000000000046,5.000049991798719,-0.4680600528073354,0.45971568102438615,0
535,0.021400000000000086,4.999392411494816,-0.45523725702428275,0.4469254325291279,0
536,0.021439999999999904,5.000049991798719,-0.4430720403059273,0.43479281379827417,0
537,0.021479999999999944,5.000707572102282,-0.42959166478975774,0.42134508664769993,0
538,0.021519999999999984,5.000378781950543,-0.4147961304049833,0.40658225068455905,0
539,0.021560000000000024,5.000378781950543,-0.4023021233625321,0.39412099179728655,0
540,0.021600000000000064,5.000378781950543,-0.3901369057787003,0.38198857177925116,0
541,0.021640000000000104,5.000049991798719,-0.37632773963402677,0.3682122522876336,0
542,0.02167999999999992,4.99972120164681,-0.36350494227329033,0.3554223503434266,0
543,0.02171999999999996,5.000378781950543,-0.35133972406362957,0.3432900759895583,0
544,0.02176,5.001036362253937,-0.3385169262804682,0.33050027017682126,0
545,0.02180000000000004,5.000707572102282,-0.32766686644940096,0.3196832501057618,0
546,0.02184000000000008,5.000378781950543,-0.3204334931431985,0.31248296402368764,0
547,0.0218799999999999,5.000049991798719,-0.3112273815639322,0.30330998680679644,0
548,0.02191999999999994,4.99972120164681,-0.3043227978071483,0.29643858422435365,0
549,0.02195999999999998,5.000049991798719,-0.29807579340246787,0.2902248074792956,0
550,0.02200000000000002,5.000049991798719,-0.2938015272017184,0.2859838150963651,0
551,0.02204000000000006,5.000707572102282,-0.28952726097733944,0.2817428685205209,0
552,0.0220800000000001,4.999063621342738,-0.28623936386560334,0.27848833656016225,0
553,0.022119999999999918,5.000378781950543,-0.2836090461661699,0.2758914291866875,0
554,0.022159999999999958,5.000049991798719,-0.2806499387436445,0.272965776936056,0
555,0.022199999999999998,5.000049991798719,-0.2770332518785735,0.2693825897597869,0
556,0.022240000000000038,5.000049991798719,-0.2763756724467517,0.2687585542042708,0
557,0.022280000000000078,4.999392411494816,-0.2750605135814391,0.2674769830729896,0
558,0.022319999999999895,5.000049991798719,-0.2721014061263543,0.2645515068795138,0
559,0.022359999999999935,4.99972120164681,-0.2697998780979539,0.2622836533097853,0
560,0.022399999999999975,5.000049991798719,-0.2665119809027278,0.2590294734394163,0
561,0.022440000000000015,5.000378781950543,-0.26256650425015443,0.255117756646648,0
562,0.022480000000000055,4.99972120164681,-0.25960739674763533,0.2521924512072887,0
563,0.022520000000000095,5.000378781950543,-0.25763465840639543,0.2502535568006178,0
564,0.022559999999999913,4.99972120164681,-0.2546755508852022,0.24732833475310845,0
565,0.022599999999999953,5.000049991798719,-0.25204523307919086,0.2447319436272567,0
566,0.022639999999999993,5.000049991798719,-0.2507300741728716,0.2434507522745925,0
567,0.022680000000000033,5.000049991798719,-0.24974370499168314,0.24249839118723712,0
568,0.022720000000000073,4.99972120164681,-0.24875733580925313,0.241546070305167,0
569,0.022760000000000113,4.99972120164681,-0.24974370499168314,0.24256652766050243,0
570,0.02279999999999993,5.000378781950543,-0.24974370499168314,0.24260065537164555,0
571,0.02283999999999997,4.999392411494816,-0.25040128444594667,0.24329240174065914,0
572,0.02288000000000001,5.000049991798719,-0.2513876536263073,0.24431297670442642,0
573,0.02292000000000005,5.001036362253937,-0.25401797143452803,0.24697753882944462,0
574,0.02296000000000009,5.000049991798719,-0.25631949950946953,0.24931334941899627,0
575,0.02299999999999991,4.999392411494816,-0.26026497619360855,0.2532931464796713,0
576,0.02303999999999995,5.001036362253937,-0.26289529397196426,0.2559578221602967,0
577,0.02307999999999999,5.000378781950543,-0.26914229866001865,0.2622392219398607,0
578,0.02312000000000003,5.000049991798719,-0.27571809301437356,0.26884944823817364,0
579,0.02316000000000007,5.000049991798719,-0.2826226770265821,0.27578850070970273,0
580,0.02320000000000011,5.000378781950543,-0.29117120952797193,0.2843715378483993,0
581,0.023239999999999927,4.999063621342738,-0.3030076389893151,0.2962425077873722,0
582,0.023279999999999967,5.000378781950543,-0.3138576991692664,0.30712714394732993,0
583,0.023320000000000007,5.000049991798719,-0.3247077591960278,0.31801181511824894,0
584,0.023360000000000047,5.000049991798719,-0.3358866087598167,0.3292253106518462,0
585,0.023400000000000087,4.999063621342738,-0.3457502994154722,0.3391236817641893,0
586,0.023439999999999905,5.000378781950543,-0.35528520026110905,0.3486932972143537,0
587,0.023479999999999945,5.000049991798719,-0.3641625216304128,0.35760536699672235,0
588,0.023519999999999985,4.998077250885994,-0.3710671048456896,0.3645447320940391,0
589,0.023560000000000025,5.000378781950543,-0.3769853189799903,0.37049776123953726,0
590,0.023600000000000065,4.99972120164681,-0.37961563635810947,0.37316292641794224,0
591,0.023640000000000105,5.000378781950543,-0.3825747433975185,0.37615691370640914,0
592,0.023679999999999923,5.000378781950543,-0.3825747433975185,0.37619182606367835,0
593,0.023719999999999963,5.000707572102282,-0.3819171640564324,0.3755691908472727,0
594,0.023760000000000003,5.000049991798719,-0.3789580570144402,0.37264505935633696,0
595,0.023800000000000043,5.000378781950543,-0.37599894996083005,0.3697209589388927,0
596,0.023840000000000083,5.000378781950543,-0.37205347387129495,0.3658105202291387,0
597,0.0238799999999999,4.99972120164681,-0.3707383151702016,0.36453042930972374,0
598,0.02391999999999994,4.999392411494816,-0.36613525969835226,0.3599624716795123,0
599,0.02395999999999998,5.000049991798719,-0.3618609938779859,0.3557233334185897,0
600,0.02400000000000002,5.000049991798719,-0.3582443073957605,0.35214180387124827,0
601,0.02404000000000006,4.999063621342738,-0.35495641057876876,0.34888909302200677,0
602,0.0240800000000001,4.99972120164681,-0.35133972406362957,0.3453076211647055,0
603,0.02411999999999992,4.99972120164681,-0.3473942478456647,0.34139738795168706,0
604,0.02415999999999996,4.99972120164681,-0.34213361285655336,0.3361720239714544,0
605,0.0242,5.000049991798719,-0.33917450565921425,0.333248215443556,0
606,0.02424000000000004,5.000378781950543,-0.33161234276943186,0.3257213785402157,0
607,0.02428000000000008,5.000049991798719,-0.32437896950050266,0.31852335823098266,0
608,0.024319999999999897,5.000378781950543,-0.31615922706654886,0.31033899538604864,0
609,0.024359999999999937,5.001036362253937,-0.3049803772152234,0.29919555140895737,0
610,0.024399999999999977,4.999392411494816,-0.29182878894724706,0.2860793949561459,0
611,0.024440000000000017,5.000378781950543,-0.2750605135814391,0.269346577001979,0
612,0.024480000000000057,5.000378781950543,-0.25533313033532373,0.24965467641935987,0
613,0.024520000000000097,5.000049991798719,-0.2342905876578798,0.22864764131248355,0
614,0.024559999999999915,5.000378781950543,-0.21061772647374233,0.20501031226104174,0
615,0.024599999999999955,5.000378781950543,-0.18497212606045715,0.179400268197481,0
616,0.024639999999999995,4.99972120164681,-0.1583401555299606,0.15280387788848568,0
617,0.024680000000000035,4.999392411494816,-0.12940665568529136,0.12390598179169338,0
618,0.024720000000000075,4.999063621342738,-0.10178831396466272,0.09632326699977137,0
619,0.024759999999999893,5.000049991798719,-0.07384118151593398,0.06841178431489137,0
620,0.024799999999999933,5.000378781950543,-0.046551627744407784,0.04115790279653078,0
621,0.024839999999999973,5.000707572102282,-0.020248442542986647,0.014890411991632713,0
622,0.024880000000000013,5.000707572102282,0.0030956350107915753,-0.008417949368354494,0
623,0.024920000000000053,4.99972120164681,0.024466974178816228,-0.02975355089153625,0
624,0.024960000000000093,5.000707572102282,0.043865574808886185,-0.049116392772050266,0
625,0.02499999999999991,5.000707572102282,0.06162022661597208,-0.06683526507132515,0
626,0.02503999999999995,5.000049991798719,0.07542940049529606,-0.08060863903115645,0
627,0.02507999999999999,5.000049991798719,0.08595067597897872,-0.091094094530349,0
628,0.02512000000000003,4.99972120164681,0.0971295313191825,-0.10223711016785741,0
629,0.02516000000000007,5.000378781950543,0.1033765387772625,-0.10844825855193246,0
630,0.02520000000000011,5.000378781950543,0.10732201719471773,-0.1123578588710693,0
631,0.02523999999999993,5.000049991798719,0.11028112601941528,-0.11528107092022816,0
632,0.02527999999999997,4.99972120164681,0.1112674956298565,-0.11623152542509663,0
633,0.02532000000000001,4.999392411494816,0.10765080706363755,-0.11257890377054658,0
634,0.02536000000000005,5.000049991798719,0.1033765387772625,-0.10826868476044305,0
635,0.02540000000000009,4.99972120164681,0.09778711104951865,-0.10264328902101583,0
636,0.025439999999999907,5.000378781950543,0.09351284281114798,-0.0983330358305265,0
637,0.025479999999999947,4.99972120164681,0.08693704556207577,-0.0917212370364931,0
638,0.025519999999999987,5.000378781950543,0.0813476179392533,-0.08609579162352898,0
639,0.025560000000000027,4.99972120164681,0.0770733497812526,-0.08178548977793404,0
640,0.025600000000000067,5.000049991798719,0.07016876280110178,-0.07484485356052656,0
641,0.025640000000000107,5.000049991798719,0.06655207440480995,-0.07119210072516469,0
642,0.025679999999999925,4.999392411494816,0.06556570484479929,-0.070169651872174,0
643,0.025719999999999965,5.000049991798719,0.06359296572814185,-0.06816081895658027,0
644,0.025760000000000005,5.001036362253937,0.06293538602358648,-0.06746713129513215,0
645,0.025800000000000045,5.000049991798719,0.06457933528590981,-0.0690749587906479,0
646,0.025840000000000085,5.000378781950543,0.0672096541121064,-0.07166914238820243,0
647,0.025879999999999903,5.000049991798719,0.06983997294627126,-0.07426331288000543,0
648,0.025919999999999943,5.000378781950543,0.07214150193269635,-0.07652868075849423,0
649,0.025959999999999983,5.000378781950543,0.07641577006649763,-0.08076677536695703,0
650,0.026000000000000023,4.99972120164681,0.08036124836247038,-0.08467606806838507,0
651,0.026040000000000063,4.99972120164681,0.08233398751715135,-0.08661260990753028,0
652,0.026080000000000103,5.000049991798719,0.08397793681612514,-0.08822035051820903,0
653,0.02611999999999992,5.000378781950543,0.08397793681612514,-0.08818413080539861,0
654,0.02615999999999996,5.000049991798719,0.08364914695608275,-0.087819110556283,0
655,0.0262,5.000049991798719,0.08233398751715135,-0.08646771040027329,0
656,0.02624000000000004,4.99972120164681,0.07805971935431567,-0.08215719154061318,0
657,0.02628000000000008,5.000707572102282,0.07477182078178243,-0.0788330326397661,0
658,0.0263199999999999,5.000378781950543,0.07214150193269635,-0.07616644417912682,0
659,0.02635999999999994,4.99972120164681,0.06918239323698341,-0.0731710569368616,0
660,0.02639999999999998,4.999392411494816,0.06523691499171154,-0.06918929155826459,0
661,0.02644000000000002,5.000049991798719,0.06490812513874837,-0.06882420633341158,0
662,0.02648000000000006,5.002680313010939,0.06227780631952985,-0.0661575842519243,0
663,0.0265200000000001,4.99972120164681,0.061291436764380286,-0.06513490389228693,0
664,0.026559999999999917,5.000049991798719,0.059647487508292976,-0.06345463663762241,0
665,0.026599999999999957,4.999392411494816,0.05931869765744993,-0.06308952194220901,0
666,0.026639999999999997,4.99972120164681,0.05997627735926084,-0.06371077030151479,0
667,0.026680000000000037,5.001036362253937,0.05997627735926084,-0.06367443280909135,0
668,0.026720000000000077,5.000049991798719,0.05997627735926084,-0.0636380895147205,0
669,0.026759999999999895,5.001365152405508,0.06162022661597208,-0.06524569002303462,0
670,0.026799999999999935,5.000707572102282,0.05866111795613836,-0.062250227508645534,0
671,0.026839999999999975,5.001036362253937,0.061291436764380286,-0.06484418770398467,0
672,0.026880000000000015,4.99972120164681,0.05997627735926084,-0.06349266527536515,0
673,0.026920000000000055,5.000378781950543,0.06030506721035353,-0.06378508804004615,0
674,0.026960000000000095,5.000378781950543,0.0626065961714958,-0.066050246199482,0
675,0.026999999999999913,4.999063621342738,0.061949016467688606,-0.0653562923262179,0
676,0.027039999999999953,5.000049991798719,0.06589449469801162,-0.06926539336680138,0
677,0.027079999999999993,5.002022732708393,0.06326417587580183,-0.06659869468195692,0
678,0.027120000000000033,4.999392411494816,0.06688086425839593,-0.07017900087632364,0
679,0.027160000000000073,5.000049991798719,0.06523691499171154,-0.06849866744303262,0
680,0.027200000000000113,5.001365152405508,0.06688086425839593,-0.07010623091185178,0
681,0.02723999999999993,4.999392411494816,0.06786723381990087,-0.07105621339125695,0
682,0.02727999999999997,5.001693942556992,0.06589449469801162,-0.06904708624995734,0
683,0.02732000000000001,5.002022732708393,0.06392175558060653,-0.06703795852265104,0
684,0.02736000000000005,4.997419670581074,0.06852481352819326,-0.07160462761655759,0
685,0.02740000000000009,5.001693942556992,0.06951118309156513,-0.0725546084290703,0
686,0.02743999999999991,5.002022732708393,0.07247029178839723,-0.07547732882434854,0
687,0.02747999999999995,5.000378781950543,0.07542940049529606,-0.0784000500253628,0
688,0.02751999999999999,5.000049991798719,0.07477182078178243,-0.0777060839478742,0
689,0.02756000000000003,5.000049991798719,0.0757581903522391,-0.07865606864237815,0
690,0.02760000000000007,5.000707572102282,0.07773092949650393,-0.080592424744693,0
691,0.02764000000000011,5.000049991798719,0.07904608892849513,-0.08187120331458089,0
692,0.027679999999999927,5.000049991798719,0.08101882808020172,-0.0838075641297345,0
693,0.027719999999999967,5.000378781950543,0.08364914695608275,-0.08640150754017217,0
694,0.027760000000000007,5.000049991798719,0.08463551653658133,-0.08735150487174781,0
695,0.027800000000000047,5.000049991798719,0.08956736445577489,-0.09224698410379756,0
696,0.027840000000000087,5.000049991798719,0.09121131376835284,-0.09385456863611352,0
697,0.027879999999999905,5.000378781950543,0.09384163267489809,-0.09644852701422102,0
698,0.027919999999999945,5.000378781950543,0.09811590091487153,-0.10068643932235899,0
699,0.027959999999999985,4.999392411494816,0.10041742997579037,-0.10295161739265474,0
700,0.028000000000000025,4.99972120164681,0.10370532864470776,-0.10620317035659899,0
701,0.028040000000000065,5.000049991798719,0.10534927798377816,-0.10781077962060723,0
702,0.028080000000000105,5.000378781950543,0.10929475641007817,-0.1117199239458363,0
703,0.028119999999999923,4.99972120164681,0.11093870575958677,-0.11332754551216129,0
704,0.028159999999999963,5.000378781950543,0.11521297408265467,-0.11756549271364047,0
705,0.028200000000000003,4.999392411494816,0.11718571331566852,-0.11950191783017522,0
706,0.028240000000000043,4.99972120164681,0.12014482217344924,-0.12242471991990445,0
707,0.028280000000000083,5.000378781950543,0.12244635129190345,-0.12468994996185195,0
708,0.0283199999999999,5.000707572102282,0.12441909054105722,-0.12662639816895643,0
709,0.02835999999999994,4.99972120164681,0.12672061967062423,-0.1288916446336352,0
710,0.02839999999999998,5.000378781950543,0.13066609819235642,-0.13280084921013155,0
711,0.02844000000000002,4.99972120164681,0.13231004758158987,-0.13440853371605613,0
712,0.02848000000000006,5.000378781950543,0.13526915648987867,-0.13733138714501722,0
713,0.0285200000000001,5.000707572102282,0.13592673624861432,-0.13795272117023633,0
714,0.02855999999999992,5.002351522859708,0.13954342493035102,-0.1415331742058697,0
715,0.02859999999999996,4.99972120164681,0.13954342493035102,-0.14149694898854973,0
716,0.02864,4.99972120164681,0.1421737439808442,-0.14409105359164126,0
717,0.02868000000000004,4.99972120164681,0.1444752731563955,-0.1463563794306052,0
718,0.02872000000000008,4.99972120164681,0.14579043268794922,-0.1476353470770391,0
719,0.028759999999999897,5.000049991798719,0.14809196187283277,-0.1499006961686769,0
720,0.028799999999999937,4.99972120164681,0.14809196187283277,-0.14986452820746138,0
721,0.028839999999999977,5.000049991798719,0.14940712140971585,-0.15114353225506086,0
722,0.028880000000000017,5.000707572102282,0.15006470117888354,-0.15176496934652017,0
723,0.028920000000000057,4.99972120164681,0.15006470117888354,-0.15172883981976812,0
724,0.028960000000000097,5.000378781950543,0.15039349106364885,-0.15202151366785305,0
725,0.028999999999999915,5.000049991798719,0.14940712140971585,-0.15099904180615675,0
726,0.029039999999999955,5.000707572102282,0.15006470117888354,-0.15162053353504992,0
727,0.029079999999999995,5.000049991798719,0.14940712140971585,-0.15092688023139036,0
728,0.029120000000000035,5.000049991798719,0.1474343821051176,-0.14891808223609546,0
729,0.029160000000000075,5.000378781950543,0.14513285292192996,-0.1465805095437331,0
730,0.029200000000000115,5.000707572102282,0.14381769339134592,-0.1452293220229331,0
731,0.029239999999999933,4.99972120164681,0.14316011362678138,-0.14453573012425433,0
732,0.029279999999999973,5.000378781950543,0.1421737439808442,-0.14351336453715022,0
733,0.029320000000000013,5.000049991798719,0.1418449540991078,-0.14314859524373796,0
734,0.029360000000000053,5.000049991798719,0.1408585844546266,-0.14212626305331058,0
735,0.029400000000000093,5.000707572102282,0.1398722148112378,-0.14110394806563462,0
736,0.02943999999999991,5.000378781950543,0.1382282654080184,-0.13942407085540298,0
737,0.02947999999999995,5.000378781950543,0.1382282654080184,-0.1393881609209643,0
738,0.02951999999999999,5.000378781950543,0.13855705528841938,-0.13968105907447775,0
739,0.02956000000000003,5.000378781950543,0.13855705528841938,-0.1396451858897941,0
740,0.02960000000000007,5.000378781950543,0.13789947552773896,-0.13895175182095737,0
741,0.02964000000000011,5.000049991798719,0.13757068564758101,-0.13858712684316096,0
742,0.02967999999999993,5.000378781950543,0.13855705528841938,-0.13953768093053243,0
743,0.02971999999999997,4.998406041038327,0.1382282654080184,-0.13917309537414893,0
744,0.02976000000000001,5.000049991798719,0.13855705528841938,-0.13946610978901966,0
745,0.02980000000000005,5.000378781950543,0.1415161642174927,-0.14238946379563464,0
746,0.02984000000000009,5.000049991798719,0.1415161642174927,-0.14235372974851554,0
747,0.029879999999999907,5.000378781950543,0.14283132374468102,-0.1436331764358351,0
748,0.029919999999999947,4.99972120164681,0.1441464832738101,-0.1449126446638969,0
749,0.029959999999999987,5.001365152405508,0.1441464832738101,-0.14487697523281837,0
750,0.030000000000000027,4.998077250885994,0.14611922257114063,-0.14681406729987845,0
751,0.030040000000000067,5.000049991798719,0.145461642804879,-0.14612086283460177,0
752,0.030080000000000107,5.000378781950543,0.145461642804879,-0.14608526099691352,0
753,0.030119999999999925,5.000049991798719,0.14611922257114063,-0.14670726211650545,0
754,0.030159999999999965,5.000049991798719,0.14611922257114063,-0.14667170699016222,0
755,0.030200000000000005,5.000049991798719,0.14710559222144168,-0.1476225453633667,0
756,0.030240000000000045,5.000378781950543,0.14710559222144168,-0.14758703826404573,0
757,0.030280000000000085,4.99972120164681,0.1474343821051176,-0.14788034555430998,0
758,0.030319999999999903,5.001693942556992,0.14710559222144168,-0.1475160979108664,0
759,0.030359999999999943,5.001036362253937,0.14644801245445316,-0.1468230855450864,0
760,0.030399999999999983,5.000049991798719,0.14611922257114063,-0.14645888855088454,0
761,0.030440000000000023,5.000378781950543,0.14710559222144168,-0.14740987690471422,0
762,0.030480000000000063,5.000378781950543,0.14644801245445316,-0.14671694198177407,0
763,0.030520000000000103,5.000378781950543,0.14579043268794922,-0.14602403352552226,0
764,0.03055999999999992,5.000378781950543,0.1441464832738101,-0.14434478221310137,0
765,0.03059999999999996,5.003009103162085,0.14348890350900304,-0.14365192766631552,0
766,0.03064,5.001036362253937,0.1418449540991078,-0.14197273091515192,0
767,0.03068000000000004,4.99972120164681,0.13855705528841938,-0.13864961252788016,0
768,0.03072000000000008,4.999392411494816,0.13954342493035102,-0.13960079068145131,0
769,0.0307599999999999,5.000378781950543,0.13789947552773896,-0.13792167820179868,0
770,0.03079999999999994,4.99972120164681,0.1355979463691857,-0.13558501470017736,0
771,0.03083999999999998,5.000378781950543,0.13494036661069325,-0.1348923296547936,0
772,0.03088000000000002,5.000707572102282,0.13296762733813555,-0.13288451447327343,0
773,0.03092000000000006,5.000378781950543,0.13231004758158987,-0.13219188850698968,0
774,0.0309600000000001,4.999392411494816,0.13066609819235642,-0.13051292292807803,0
775,0.030999999999999917,5.000049991798719,0.12967972856027796,-0.12949156744675272,0
776,0.031039999999999957,5.000378781950543,0.1300085184375156,-0.12978540213507872,0
777,0.031079999999999997,5.000378781950543,0.12935093868316216,-0.12909289817158143,0
778,0.031120000000000037,4.99972120164681,0.12803577917591782,-0.127742845753918,0
779,0.031160000000000077,5.000707572102282,0.12770698929941152,-0.1273791945841951,0
780,0.031199999999999894,5.001365152405508,0.12606303991870926,-0.12570041584547348,0
781,0.031239999999999934,4.99972120164681,0.12540546016728232,-0.12500803898873233,0
782,0.031279999999999974,5.000378781950543,0.12540546016728232,-0.12497327445314069,0
783,0.031320000000000014,5.000378781950543,0.1234327209159308,-0.12296580355244281,0
784,0.031360000000000054,5.000378781950543,0.12244635129190345,-0.12194473548133908,0
785,0.031400000000000095,5.000049991798719,0.12080240192096793,-0.12026612118111975,0
786,0.03143999999999991,5.000049991798719,0.12047361204714746,-0.11990270021082489,0
787,0.03147999999999995,5.000049991798719,0.12080240192096793,-0.12019689313548793,0
788,0.03151999999999999,5.000707572102282,0.12047361204714746,-0.11983354077382162,0
789,0.03156000000000003,5.000049991798719,0.12014482217344924,-0.11947022318706708,0
790,0.03160000000000007,5.000707572102282,0.12211756141747197,-0.12140846980578064,0
791,0.03164000000000011,4.999392411494816,0.12310393104113287,-0.12236038220431338,0
792,0.03167999999999993,5.000378781950543,0.12441909054105722,-0.1236411201911972,0
793,0.03171999999999997,5.000049991798719,0.12606303991870926,-0.12525068407927165,0
794,0.03176000000000001,5.001365152405508,0.12639182979460575,-0.12554512479989388,0
795,0.03180000000000005,5.001693942556992,0.12672061967062423,-0.1258396021652434,0
796,0.03184000000000009,4.999392411494816,0.12770698929941152,-0.12679169623772688,0
797,0.03187999999999991,5.000049991798719,0.12737819942302714,-0.1264286680686179,0
798,0.03191999999999995,4.99972120164681,0.12737819942302714,-0.12639446734813703,0
799,0.03195999999999999,5.000049991798719,0.12737819942302714,-0.12636030450801145,0
800,0.03200000000000003,5.000049991798719,0.12836456905254606,-0.12731254948531529,0
801,0.03204000000000007,4.99972120164681,0.12803577917591782,-0.1269496734513776,0
802,0.03208000000000011,4.999392411494816,0.12639182979460575,-0.12527167671409326,0
803,0.032119999999999926,4.99972120164681,0.12606303991870926,-0.12490887858942615,0
804,0.032159999999999966,4.99972120164681,0.1257342500429348,-0.124546119877376,0
805,0.032200000000000006,4.99972120164681,0.12540546016728232,-0.12418340088266155,0
806,0.032240000000000046,5.000378781950543,0.12474788041634353,-0.12349193203401498,0
807,0.032280000000000086,4.99972120164681,0.12441909054105722,-0.12312929338593379,0
808,0.032319999999999904,4.99972120164681,0.12310393104113287,-0.12178032574110083,0
809,0.032359999999999944,5.000049991798719,0.12277514116645709,-0.12141776865178747,0
810,0.032399999999999984,4.99972120164681,0.12178877154316266,-0.12039767304591872,0
811,0.032440000000000024,4.99972120164681,0.12310393104113287,-0.12167914809457428,0
812,0.032480000000000064,5.000049991798719,0.12244635129190345,-0.12098792572988695,0
813,0.032520000000000104,5.000049991798719,0.12113119179491064,-0.11963916575128719,0
814,0.03255999999999992,4.99972120164681,0.12145998166897555,-0.11993439757698401,0
815,0.03259999999999996,5.000707572102282,0.12178877154316266,-0.12022967213481997,0
816,0.03264,5.000049991798719,0.12113119179491064,-0.11953862010039835,0
817,0.03268000000000004,5.000049991798719,0.12080240192096793,-0.11917640126801557,0
818,0.03272000000000008,5.000049991798719,0.12047361204714746,-0.1188142260604123,0
819,0.0327599999999999,5.000049991798719,0.12178877154316266,-0.12009604414360568,0
820,0.03279999999999994,4.99972120164681,0.12145998166897555,-0.11973395707323409,0
821,0.03283999999999998,5.000378781950543,0.12047361204714746,-0.11871433476690421,0
822,0.03288000000000002,5.000378781950543,0.12080240192096793,-0.11900991676231634,0
823,0.03292000000000006,4.99972120164681,0.12080240192096793,-0.11897675398377425,0
824,0.0329600000000001,4.997748460733576,0.12047361204714746,-0.11861484672440915,0
825,0.03299999999999992,5.000049991798719,0.12113119179491064,-0.11923935477211134,0
826,0.03303999999999996,4.99972120164681,0.11981603229987327,-0.11789116955433407,0
827,0.03308,4.99972120164681,0.12113119179491064,-0.11917334959513817,0
828,0.03312000000000004,5.000049991798719,0.12113119179491064,-0.11914041669994153,0
829,0.03316000000000008,5.000049991798719,0.12178877154316266,-0.1197651104019048,0
830,0.033199999999999896,5.000049991798719,0.12244635129190345,-0.1203898512424738,0
831,0.033239999999999936,4.998406041038327,0.12211756141747197,-0.12002826988653101,0
832,0.033279999999999976,5.000707572102282,0.12244635129190345,-0.12032431599398596,0
833,0.033320000000000016,5.000049991798719,0.12277514116645709,-0.12062041010329988,0
834,0.033360000000000056,5.000378781950543,0.12376151079085085,-0.12157413225071714,0
835,0.033400000000000096,4.99972120164681,0.12606303991870926,-0.12384306247570988,0
836,0.033439999999999914,5.000049991798719,0.12639182979460575,-0.12413930230801684,0
837,0.033479999999999954,4.99972120164681,0.12737819942302714,-0.1250931710366046,0
838,0.033519999999999994,5.000707572102282,0.12737819942302714,-0.12506071956431758,0
839,0.033560000000000034,5.001036362253937,0.12737819942302714,-0.12502831780267568,0
840,0.033600000000000074,4.999392411494816,0.12639182979460575,-0.12400959640566028,0
841,0.033640000000000114,5.000049991798719,0.12737819942302714,-0.12496366454023922,0
842,0.03367999999999993,4.999392411494816,0.12737819942302714,-0.12493141360214943,0
843,0.03371999999999997,5.000707572102282,0.1286933589292962,-0.1262143730063769,0
844,0.03376000000000001,4.999392411494816,0.12836456905254606,-0.12585343414321992,0
845,0.03380000000000005,5.000049991798719,0.12935093868316216,-0.12680770618193815,0
846,0.03384000000000009,5.002351522859708,0.12935093868316216,-0.1267756602627078,0
847,0.03387999999999991,5.000049991798719,0.12803577917591782,-0.1254285067863402,0
848,0.03391999999999995,5.000378781950543,0.12639182979460575,-0.12375261566272906,0
849,0.03395999999999999,5.000707572102282,0.12672061967062423,-0.12404951629926433,0
850,0.03400000000000003,5.000049991798719,0.12376151079085085,-0.12105857095808671,0
851,0.03404000000000007,5.000049991798719,0.12277514116645709,-0.12004041792489896,0
852,0.03408000000000011,4.99972120164681,0.12211756141747197,-0.11935110809352646,0
853,0.03411999999999993,5.000049991798719,0.12145998166897555,-0.11866185186210712,0
854,0.03415999999999997,5.000049991798719,0.12113119179491064,-0.11830143937690007,0
855,0.03420000000000001,5.000378781950543,0.12014482217344924,-0.11728350128764892,0
856,0.03424000000000005,4.99972120164681,0.11981603229987327,-0.11692319736045947,0
857,0.03428000000000009,5.000378781950543,0.11948724242641957,-0.11656294811764145,0
858,0.034319999999999906,5.000378781950543,0.1181720829338278,-0.11521638420925309,0
859,0.034359999999999946,5.000378781950543,0.11751450318826591,-0.1145274552700235,0
860,0.034399999999999986,5.000049991798719,0.11784329306098568,-0.11482495143900474,0
861,0.034440000000000026,5.000707572102282,0.11619934369861068,-0.11314976412985678,0
862,0.034480000000000066,5.000049991798719,0.1158705538265029,-0.11278979233421109,0
863,0.034520000000000106,4.99972120164681,0.11554176395451755,-0.11242987682742263,0
864,0.034559999999999924,5.000378781950543,0.11521297408265467,-0.11207001787421846,0
865,0.034599999999999964,5.000049991798719,0.11455539433929632,-0.11138142586693209,0
866,0.034640000000000004,4.999392411494816,0.11324023485404966,-0.11003531119834362,0
867,0.034680000000000044,4.99972120164681,0.11060991588943969,-0.10737409439336938,0
868,0.034720000000000084,5.000707572102282,0.11028112601941528,-0.10701446428756464,0
869,0.0347599999999999,5.000707572102282,0.10830838680184553,-0.10501094269961708,0
870,0.03479999999999994,5.000049991798719,0.10699322732592072,-0.10366505897874476,0
871,0.03483999999999998,4.999392411494816,0.10534927798377816,-0.10199044377631905,0
872,0.03488000000000002,5.000049991798719,0.10502048811571825,-0.10163104669107768,0
873,0.03492000000000006,4.99972120164681,0.10469169824778124,-0.10127170850669845,0
874,0.0349600000000001,4.99972120164681,0.1033765387772625,-0.0999260598773114,0
875,0.03499999999999992,5.001365152405508,0.10370532864470776,-0.10022441999949142,0
876,0.03503999999999996,5.002351522859708,0.1033765387772625,-0.09986526005560448,0
877,0.03508,5.000049991798719,0.10534927798377816,-0.10180768910891119,0
878,0.03512000000000004,5.000378781950543,0.10567806785196096,-0.10210622900071262,0
879,0.03516000000000008,5.000707572102282,0.10633564758869515,-0.10273361919067084,0
880,0.0351999999999999,4.999392411494816,0.10995233614951355,-0.1063201788862765,0
881,0.03523999999999994,4.99972120164681,0.10830838680184553,-0.10464616160609386,0
882,0.03527999999999998,4.99972120164681,0.10896596654054455,-0.1052737345952856,0
883,0.03532000000000002,5.000049991798719,0.10863717667113368,-0.10491499940885562,0
884,0.03536000000000006,4.999063621342738,0.10797959693268015,-0.10422753603452053,0
885,0.0354000000000001,5.000049991798719,0.11093870575958677,-0.10715682315449834,0
886,0.035439999999999916,5.001036362253937,0.10666443745724652,-0.10285279532116019,0
887,0.035479999999999956,4.997419670581074,0.10929475641007817,-0.10545341716506305,0
888,0.035519999999999996,4.998734831190575,0.10403411851227598,-0.10016314482569677,0
889,0.035560000000000036,4.998734831190575,0.10239016917566456,-0.09848962395933603,0
890,0.035600000000000076,4.99972120164681,0.10403411851227598,-0.10010406492161462,0
891,0.035639999999999894,4.999392411494816,0.10469169824778124,-0.10073219968095413,0
892,0.035679999999999934,4.99972120164681,0.1033765387772625,-0.09938765887433326,0
893,0.035719999999999974,5.001693942556992,0.10107500970858954,-0.09705681235066169,0
894,0.035760000000000014,5.000707572102282,0.09351284281114798,-0.08946539211950548,0
895,0.035800000000000054,4.999063621342738,0.09121131376835284,-0.08713467410359813,0
896,0.035840000000000094,5.000707572102282,0.08825220500793643,-0.08414644096912573,0
897,0.03587999999999991,5.000707572102282,0.08529309625753255,-0.08115827268130858,0
898,0.03591999999999995,5.001365152405508,0.0813476179392533,-0.0771837998989753,0
899,0.03595999999999999,5.000049991798719,0.07641577006649763,-0.07222302287136875,0
900,0.03600000000000003,5.000049991798719,0.07115513236633955,-0.06693352156053166,0
901,0.03604000000000007,4.99972120164681,0.06852481352819326,-0.064274404889969,0
902,0.03608000000000011,5.000378781950543,0.061291436764380286,-0.057012296305212415,0
903,0.03611999999999993,5.000378781950543,0.05570200930641887,-0.0513942032701072,0
904,0.03615999999999997,5.000378781950543,0.04978379203736312,-0.04544738689914886,0
905,0.03620000000000001,5.001693942556992,0.04287920527475757,-0.03851426774043501,0
906,0.03624000000000005,4.999063621342738,0.036303408409458296,-0.03191000541448413,0
907,0.03628000000000009,4.99972120164681,0.030056401434036775,-0.02563460014263677,0
908,0.03631999999999991,4.99972120164681,0.025124553854007567,-0.020674421658280706,0
909,0.03635999999999995,4.99972120164681,0.01821996728971463,-0.013741571808734782,0
910,0.03639999999999999,5.000378781950543,0.014274489278030808,-0.009767898356945526,0
911,0.03644000000000003,5.000378781950543,0.009671431620803153,-0.005136713329929765,0
912,0.03648000000000007,5.002022732708393,0.00506837398845672,-0.0005055966223758979,0
913,0.03652000000000011,5.000378781950543,0.001122896037706475,0.003467871885646623,0
914,0.036559999999999926,5.001036362253937,-0.0015074225859438989,0.0061261123261910355,0
915,0.036599999999999966,5.000049991798719,-0.005124110680146385,0.009770653275380098,0
916,0.036640000000000006,4.99972120164681,-0.006110480157705198,0.01078480642540497,0
917,0.036680000000000046,5.000707572102282,-0.00939837840793746,0.014100418945888371,0
918,0.036720000000000086,4.99972120164681,-0.008412008934208556,0.01314169412142216,0
919,0.036759999999999904,5.000707572102282,-0.0113711173519455,0.01612837734958314,0
920,0.036799999999999944,4.99972120164681,-0.013343856291351444,0.018128621043649595,0
921,0.036839999999999984,4.999392411494816,-0.01597417487006185,0.02078637410525988,0
922,0.036880000000000024,5.000378781950543,-0.018275703619711994,0.023115266850982363,0
923,0.036920000000000064,5.000378781950543,-0.020248442542986647,0.025115299069367686,0
924,0.036960000000000104,5.000049991798719,-0.023536340738185738,0.02843041964551693,0
925,0.03699999999999992,5.000049991798719,-0.027481818555480722,0.03240304871734051,0
926,0.03703999999999996,5.000049991798719,-0.03142729635426868,0.03637560643291457,0
927,0.03708,4.998734831190575,-0.035701563948709644,0.040676882396020714,0
928,0.03712000000000004,5.000378781950543,-0.04030462133375036,0.045306876392171874,0
929,0.03716000000000008,5.000378781950543,-0.045565258314247556,0.05059437801773778,0
930,0.0371999999999999,4.99972120164681,-0.04951073602790314,0.05456664820288215,0
931,0.03723999999999994,4.999392411494816,-0.05510016275699865,0.060182795023299124,0
932,0.03727999999999998,5.000378781950543,-0.06036079964426265,0.06547007941608271,0
933,0.03732000000000002,5.000378781950543,-0.06496385689333826,0.0700997113801961,0
934,0.03736000000000006,5.000707572102282,-0.06825175491278114,0.07341411112047141,0
935,0.0374000000000001,4.99972120164681,-0.07121086311914367,0.07639964785069692,0
936,0.03743999999999992,5.000049991798719,-0.07285481211811588,0.07806995197475994,0
937,0.03747999999999996,5.000049991798719,-0.07581392030804664,0.08105534169016995,0
938,0.03752,5.000049991798719,-0.07416997131494572,0.07943760042306325,0
939,0.03756000000000004,5.000707572102282,-0.07351239171679176,0.07880615455251228,0
940,0.03760000000000008,5.000049991798719,-0.07285481211811588,0.07817463448511175,0
941,0.037639999999999896,4.99972120164681,-0.06923812431607472,0.07458393182105413,0
942,0.037679999999999936,4.999392411494816,-0.06595022630053791,0.07132194435421912,0
943,0.037719999999999976,4.99972120164681,-0.06003200983978245,0.06542956365786984,0
944,0.037760000000000016,5.000378781950543,-0.05608653217589139,0.06150984678005397,0
945,0.037800000000000056,5.000049991798719,-0.05082589526164695,0.05627489548049883,0
946,0.037840000000000096,5.000049991798719,-0.04523646850393555,0.05071107897401836,0
947,0.037879999999999914,5.000707572102282,-0.04129099077011207,0.046791135936879474,0
948,0.037919999999999954,5.000049991798719,-0.035043984320212454,0.04056958843901676,0
949,0.037959999999999994,4.999063621342738,-0.02781060837275358,0.033361595509834086,0
950,0.038000000000000034,5.000049991798719,-0.021234812002893247,0.02681110603636684,0
951,0.038040000000000074,5.000378781950543,-0.012686276645394332,0.018287801266248002,0
952,0.038080000000000114,5.000049991798719,-0.006110480157705198,0.011737158870790423,0
953,0.03811999999999993,5.000378781950543,0.0007941062093044515,0.004857649915724585,0
954,0.03815999999999997,5.000378781950543,0.007369902801517392,-0.0016931461289733385,0
955,0.03820000000000001,5.000049991798719,0.011972960446309217,-0.006271280273819915,0
956,0.03824000000000005,5.000378781950543,0.01295932994485767,-0.007232803502132026,0
957,0.03828000000000009,5.002351522859708,0.01328811977796078,-0.0075368244758432235,0
958,0.03831999999999991,5.000049991798719,0.011972960446309217,-0.006196973875774461,0
959,0.03835999999999995,5.000049991798719,0.0076986926324629085,-0.001898092563608983,0
960,0.03839999999999999,4.99972120164681,0.0014516858662357995,0.00437344975272469,0
961,0.03844000000000003,4.99972120164681,-0.008412008934208556,0.014261601977958838,0
962,0.03848000000000007,4.99972120164681,-0.018933283261316228,0.024807255428447528,0
963,0.03852000000000011,4.999063621342738,-0.03274245561641449,0.03864072843044003,0
964,0.03855999999999993,5.000707572102282,-0.048853156410254436,0.054775651220625166,0
965,0.03859999999999997,5.000707572102282,-0.06463506709067811,0.07058170507379985,0
966,0.03864000000000001,5.000049991798719,-0.08107455706402487,0.08704525922427689,0
967,0.03868000000000005,5.000378781950543,-0.09751404671038476,0.1035087338811401,0
968,0.03872000000000009,4.99972120164681,-0.11395353602801415,0.11997212887266187,0
969,0.038759999999999906,4.99972120164681,-0.12940665568529136,0.1354490746982599,0
970,0.038799999999999946,5.000378781950543,-0.14321582619461398,0.14928199170239675,0
971,0.038839999999999986,4.99972120164681,-0.15603862717110994,0.16212845933329223,0
972,0.038880000000000026,5.000707572102282,-0.16491595080474653,0.171029369615034,0
973,0.038920000000000066,4.999392411494816,-0.17116295626601774,0.17729988155326637,0
974,0.038960000000000106,4.99972120164681,-0.17247811530430668,0.17863846673355455,0
975,0.038999999999999924,5.000049991798719,-0.169190217704546,0.1753739147780472,0
976,0.039039999999999964,5.000707572102282,-0.1603128941180325,0.16651985617629222,0
977,0.039080000000000004,5.000049991798719,-0.14913404205518838,0.15536418827799942,0
978,0.039120000000000044,4.99972120164681,-0.13137939434385165,0.13763264375133222,0
979,0.039160000000000084,4.99972120164681,-0.11230958711109378,0.11858585856472667,0
980,0.0391999999999999,4.99972120164681,-0.08863672234206758,0.09493593454574106,0
981,0.03923999999999994,5.000049991798719,-0.06101837925283336,0.06734045075388337,0
982,0.03927999999999998,5.000049991798719,-0.03274245561641449,0.03908730480666811,0
983,0.03932000000000002,5.000049991798719,-0.005452900506126915,0.011820445622947179,0
984,0.03936000000000006,5.000378781950543,0.026110923367741706,-0.01972076424040975,0
985,0.0394000000000001,4.99972120164681,0.05570200930641887,-0.04928931823700056,0
986,0.03943999999999992,4.998406041038327,0.08496430639699507,-0.07852916560523729,0
987,0.03947999999999996,5.000049991798719,0.11258265511216159,-0.10612514696808256,0
988,0.03952,5.000049991798719,0.13954342493035102,-0.13306363195318882,0
989,0.03956000000000004,4.999392411494816,0.16453145622281592,-0.158029461079976,0
990,0.03960000000000008,4.99972120164681,0.18787553871644425,-0.18135142422244543,0
991,0.0396399999999999,4.99972120164681,0.20826051265398074,-0.20171436176940005,0
992,0.03967999999999994,4.99972120164681,0.2296318567873061,-0.22306375261772254,0
993,0.03971999999999998,4.998077250885994,0.24541377277417437,-0.23882379856911165,0
994,0.03976000000000002,5.000049991798719,0.2611956890304813,-0.2545839281823493,0
995,0.03980000000000006,5.000049991798719,0.27632002569418057,-0.2696865617372156,0
996,0.0398400000000001,5.000049991798719,0.28947162299198576,-0.28281653960118974,0
997,0.039879999999999916,5.000049991798719,0.3009792707786314,-0.2943026517687098,0
998,0.039919999999999956,5.000378781950543,0.310185389109042,-0.30348731843334115,0
999,0.039959999999999996,4.99972120164681,0.31676118797131,-0.31004174972075327,0
1000,0.040000000000000036,5.000049991798719,0.3239945667724302,-0.3172538451744525,0
1001,0.040040000000000076,5.000378781950543,0.32761125619361986,-0.32084933561109974,0
1002,0.040080000000000116,5.000378781950543,0.32695367629783645,-0.3201706412280274,0
1003,0.040119999999999933,5.000049991798719,0.3272824662456714,-0.3204784013191312,0
1004,0.040159999999999973,5.000378781950543,0.3236657768257307,-0.3168407668052503,0
1005,0.040200000000000014,4.99972120164681,0.3200490874195386,-0.31320321719907024,0
1006,0.040240000000000054,5.000378781950543,0.31248691870564554,-0.30562027330922964,0
1007,0.040280000000000094,5.000049991798719,0.3039383802321952,-0.29705104481288613,0
1008,0.04031999999999991,5.000378781950543,0.29440347202617895,-0.2874955318649695,0
1009,0.04035999999999995,5.000378781950543,0.28125187465922435,-0.27432341516396885,0
1010,0.04039999999999999,4.99972120164681,0.269415437186839,-0.2624665438911746,0
1011,0.04044000000000003,5.000049991798719,0.25922294948376073,-0.25225370804602787,0
1012,0.04048000000000007,5.000707572102282,0.24607135261281843,-0.23908184881498062,0
1013,0.04052000000000011,5.000049991798719,0.23357733575867895,-0.22656765550524144,0
1014,0.04055999999999993,5.000049991798719,0.2204257392533413,-0.21339596857026916,0
1015,0.04059999999999997,5.000049991798719,0.20661656312595558,-0.1995667881595904,0
1016,0.04064000000000001,5.000049991798719,0.1937937569092451,-0.18672406392522092,0
1017,0.04068000000000005,5.000049991798719,0.1819573205623241,-0.17486779594448254,0
1018,0.04072000000000009,5.000378781950543,0.16913451469481428,-0.1620252449441184,0
1019,0.04075999999999991,5.000378781950543,0.15861323822206289,-0.15148430995551046,0
1020,0.04079999999999995,5.000378781950543,0.14611922257114063,-0.13897072252067638,0
1021,0.04083999999999999,4.99972120164681,0.1369131058876297,-0.12974512089905677,0
1022,0.04088000000000003,5.000049991798719,0.12606303991870926,-0.1188756569505997,0
1023,0.04092000000000007,5.000378781950543,0.11619934369861068,-0.10899264982121484,0
1024,0.04096000000000011,5.000378781950543,0.10732201719471773,-0.1000960995888727,0
1025,0.040999999999999925,4.99972120164681,0.10008864010957542,-0.09284358606561247,0
1026,0.041039999999999965,5.000049991798719,0.09219768335738154,-0.08493358027403282,0
1027,0.041080000000000005,5.000049991798719,0.08397793681612514,-0.07669487219942964,0
1028,0.041120000000000045,5.000378781950543,0.0770733497812526,-0.06977141124346131,0
1029,0.041160000000000085,4.99972120164681,0.07016876280110178,-0.06284803805958215,0
1030,0.0411999999999999,5.000049991798719,0.06425054543319586,-0.05691112230933561,0
1031,0.04123999999999994,5.000049991798719,0.05767474840510757,-0.05031671482321752,0
1032,0.04127999999999998,5.000378781950543,0.05274290066682373,-0.04536634465304008,0
1033,0.04132000000000002,5.000378781950543,0.048139842803156765,-0.04074485248434252,0
1034,0.04136000000000006,5.000378781950543,0.04353678496405114,-0.036123448566697,0
1035,0.0414000000000001,5.000378781950543,0.04123525605372079,-0.03380366190284548,0
1036,0.04143999999999992,5.000049991798719,0.037289777936047624,-0.029840014454097508,0
1037,0.04147999999999996,5.001693942556992,0.033015509995673945,-0.025547665701421945,0
1038,0.04152,4.998734831190575,0.030056401434036775,-0.02257056494148077,0
1039,0.04156000000000004,5.000378781950543,0.02676850304419573,-0.019264763061456386,0
1040,0.04160000000000008,5.000378781950543,0.024138184341410046,-0.016616629669628208,0
1041,0.0416399999999999,5.000049991798719,0.023480604666976643,-0.01594132419921024,0
1042,0.04167999999999994,5.000378781950543,0.02019270630239349,-0.012635789022514221,0
1043,0.04171999999999998,5.000049991798719,0.01789117745471111,-0.01031671243630053,0
1044,0.04176000000000002,4.999392411494816,0.014932068945377922,-0.007340145350623134,0
1045,0.04180000000000006,4.99972120164681,0.01065780111668721,-0.003048508195275884,0
1046,0.0418400000000001,5.000049991798719,0.009342641789095676,-0.0017160688771105936,0
1047,0.04187999999999992,4.99972120164681,0.006383533309443135,0.0012602301717435094,0
1048,0.04191999999999996,5.000049991798719,0.00506837398845672,0.002592490556376087,0
1049,0.04196,4.999392411494816,0.004739584158527918,0.002938291861319109,0
1050,0.04200000000000004,4.99972120164681,0.003424424840084442,0.004270372984175486,0
1051,0.04204000000000008,5.000378781950543,0.0021092655236763236,0.005602364353533423,0
1052,0.042079999999999895,5.000378781950543,0.0021092655236763236,0.005619106575266569,0
1053,0.042119999999999935,5.000049991798719,0.0021092655236763236,0.005635758887137937,0
1054,0.042159999999999975,5.000707572102282,0.004410794328726292,0.0033507924065612205,0
1055,0.042200000000000015,5.000378781950543,0.0076986926324629085,7.93663634723607e-05,0
1056,0.042240000000000055,5.000049991798719,0.012630540111881347,-0.004836098994441984,0
1057,0.042280000000000095,5.000378781950543,0.019206336795484613,-0.01139560376989357,0
1058,0.04231999999999991,4.99972120164681,0.027097292882612076,-0.01927035823532075,0
1059,0.04235999999999995,5.000707572102282,0.03696098809372539,-0.029117942183174136,0
1060,0.04239999999999999,5.000378781950543,0.04682468341804723,-0.03896561667355482,0
1061,0.04244000000000003,5.000378781950543,0.05800353825532628,-0.0501285411759792,0
1062,0.04248000000000007,5.000049991798719,0.07214150193269635,-0.06425066508623799,0
1063,0.04252000000000011,5.000707572102282,0.08529309625753255,-0.07738651027925236,0
1064,0.04255999999999993,4.99972120164681,0.09910227051166931,-0.0911800261032916,0
1065,0.04259999999999997,5.000378781950543,0.11258265511216159,-0.10464484304073418,0
1066,0.04264000000000001,4.99972120164681,0.1250766702917519,-0.11712338138853455,0
1067,0.04268000000000005,5.000707572102282,0.13724189576754459,-0.1292732209268973,0
1068,0.04272000000000009,4.99972120164681,0.14710559222144168,-0.13912162239971287,0
1069,0.04275999999999991,5.000378781950543,0.15598291912315737,-0.14798374533757186,0
1070,0.04279999999999995,5.000707572102282,0.16288750677424663,-0.15487322010179383,0
1071,0.04283999999999999,5.000049991798719,0.16913451469481428,-0.16110520627113628,0
1072,0.04288000000000003,4.99972120164681,0.17044967426257054,-0.16240543528085005,0
1073,0.04292000000000007,5.000378781950543,0.1730799934038481,-0.1650209151136962,0
1074,0.04296000000000011,4.99972120164681,0.173408783297048,-0.1653349570033919,0
1075,0.04299999999999993,5.000378781950543,0.17012088437045125,-0.16203240143242187,0
1076,0.04303999999999997,4.99972120164681,0.16749056523782313,-0.159387517067643,0
1077,0.04308000000000001,4.99972120164681,0.16321629666371967,-0.1550987747255911,0
1078,0.04312000000000005,4.999392411494816,0.15762686855906824,-0.1494949643680613,0
1079,0.04316000000000009,4.99972120164681,0.15170865060391983,-0.1435624557248605,0
1080,0.043199999999999905,5.000378781950543,0.14348890350900304,-0.13532850955536146,0
1081,0.043239999999999945,5.001036362253937,0.13658431600783633,-0.12840981464061524,0
1082,0.043279999999999985,5.000707572102282,0.1300085184375156,-0.12182000136413876,0
1083,0.043320000000000025,5.000049991798719,0.12310393104113287,-0.11490149001433386,0
1084,0.043360000000000065,4.999063621342738,0.1158705538265029,-0.10765428064321401,0
1085,0.043400000000000105,5.000049991798719,0.10929475641007817,-0.10106474291031936,0
1086,0.04343999999999992,4.99972120164681,0.10271895904274086,-0.09447529710850885,0
1087,0.04347999999999996,4.99972120164681,0.09515679213113215,-0.08689957368528976,0
1088,0.04352,4.998406041038327,0.08890978473160849,-0.08063910173677429,0
1089,0.04356000000000004,4.998734831190575,0.08233398751715135,-0.07404993197458963,0
1090,0.04360000000000008,5.000707572102282,0.07773092949650393,-0.06943359344501511,0
1091,0.0436399999999999,5.001365152405508,0.07345666135624548,-0.06514613687105668,0
1092,0.04367999999999994,4.998734831190575,0.06655207440480995,-0.058228453596465904,0
1093,0.04371999999999998,4.997419670581074,0.061291436764380286,-0.05295481177763467,0
1094,0.04376000000000002,5.000049991798719,0.05603079915588792,-0.047681262168594835,0
1095,0.04380000000000006,4.995775719817295,0.05044137173192248,-0.042079014953928115,0
1096,0.0438400000000001,5.000378781950543,0.04287920527475757,-0.034504120946792324,0
1097,0.04387999999999992,5.002022732708393,0.03827614746376892,-0.029888427856340175,0
1098,0.04391999999999996,5.001036362253937,0.030385191273714543,-0.02198492868599941,0
1099,0.04396,4.998406041038327,0.027754872559823354,-0.019342159318562174,0
1100,0.04400000000000004,4.99972120164681,0.02085028597429857,-0.012425214432688486,0
1101,0.04404000000000008,4.998734831190575,0.014603279111640999,-0.006165941648229811,0
1102,0.0440799999999999,5.000049991798719,0.009013851957515154,-0.0005643409750958617,0
1103,0.04411999999999994,5.000049991798719,0.004739584158527918,0.003722007916966419,0
1104,0.04415999999999998,5.000707572102282,0.00013652655288240445,0.008337054167718544,0
1105,0.04420000000000002,5.000707572102282,-0.00348016154833046,0.011965638445138677,0
1106,0.04424000000000006,4.99972120164681,-0.004466531027802631,0.012963811612091675,0
1107,0.0442800000000001,5.000049991798719,-0.006439269983302923,0.014948261747622815,0
1108,0.044319999999999915,5.000049991798719,-0.005124110680146385,0.013644721099426549,0
1109,0.044359999999999955,4.999392411494816,-0.004466531027802631,0.012998667560454147,0
1110,0.044399999999999995,5.000378781950543,-0.00348016154833046,0.01202373163734774,0
1111,0.044440000000000035,5.000378781950543,-0.001178632758433426,0.0097335438324955,0
1112,0.044480000000000075,5.000707572102282,-0.00019226327513760522,0.008758422749708561,0
1113,0.044520000000000115,5.000049991798719,0.001780475694892425,0.00679683958353644,0
1114,0.04455999999999993,5.000378781950543,0.0024380553525874815,0.0061503231220322585,0
1115,0.04459999999999997,4.99972120164681,0.00506837398845672,0.003530975064769265,0
1116,0.04464000000000001,5.000378781950543,0.006712323140007484,0.0018979038654202696,0
1117,0.04468000000000005,4.99972120164681,0.006712323140007484,0.0019086891834948216,0
1118,0.04472000000000009,4.998734831190575,0.00506837398845672,0.0035633310123664996,0
1119,0.04475999999999991,4.99972120164681,0.003424424840084442,0.005217880191775159,0
1120,0.04479999999999995,4.99972120164681,0.001780475694892425,0.006872336717282934,0
1121,0.04483999999999999,5.000049991798719,-0.001178632758433426,0.009841859896861788,0
1122,0.04488000000000003,5.000707572102282,-0.0031513717215847087,0.01182492092995413,0
1123,0.04492000000000007,5.000378781950543,-0.008412008934208556,0.017095787555050146,0
1124,0.04496000000000011,5.000707572102282,-0.010384747880516562,0.019078663256296202,0
1125,0.04499999999999993,4.99972120164681,-0.01564538504817102,0.024349344522380162,0
1126,0.04503999999999997,5.000049991798719,-0.020248442542986647,0.028962353461232188,0
1127,0.04508000000000001,5.000378781950543,-0.025837869467188898,0.03456163917828187,0
1128,0.04512000000000005,4.99972120164681,-0.031098506538410467,0.03983204239545399,0
1129,0.04516000000000009,5.000378781950543,-0.035372774134525484,0.044115983496001876,0
1130,0.04519999999999991,5.000049991798719,-0.04129099077011207,0.0500437810009689,0
1131,0.04523999999999995,4.99972120164681,-0.04786678698281073,0.05662906545554597,0
1132,0.04527999999999999,5.000049991798719,-0.05214105449331856,0.060912728589064685,0
1133,0.04532000000000003,5.001365152405508,-0.059374430230432304,0.06815540734003955,0
1134,0.04536000000000007,4.999392411494816,-0.06562143649826817,0.07441162402338669,0
1135,0.04540000000000011,4.99972120164681,-0.06956691411691203,0.07836621947107292,0
1136,0.045439999999999925,4.999392411494816,-0.07351239171679176,0.08232072232648752,0
1137,0.045479999999999965,5.000378781950543,-0.07712907950017713,0.08594634280594116,0
1138,0.045520000000000005,5.000378781950543,-0.07844423869021762,0.08727034214770227,0
1139,0.045560000000000045,4.99972120164681,-0.0791018182844538,0.08793666936550718,0
1140,0.045600000000000085,5.000378781950543,-0.07548513050968754,0.08432863670342941,0
1141,0.0456399999999999,5.000378781950543,-0.07318360191751903,0.08203567073141521,0
1142,0.04567999999999994,5.000378781950543,-0.06759417530993413,0.0764547142708702,0
1143,0.04571999999999998,4.99972120164681,-0.059703220035172325,0.06857213669052614,0
1144,0.04576000000000002,4.99972120164681,-0.052469844300912574,0.06134704621962572,0
1145,0.04580000000000006,5.000378781950543,-0.04425009907222392,0.05313549384587221,0
1146,0.0458400000000001,5.000049991798719,-0.03340003524671499,0.04229353049057821,0
1147,0.04587999999999992,4.99972120164681,-0.021563601822605624,0.03046510517673598,0
1148,0.04591999999999996,5.001036362253937,-0.0090695885834889,0.017979007713778306,0
1149,0.04596,5.000049991798719,0.004739584158527918,0.004177658440718324,0
1150,0.04600000000000004,5.000707572102282,0.020521496138282788,-0.011596522349311314,0
1151,0.04604000000000008,5.000049991798719,0.03465945920099257,-0.025726846472493445,0
1152,0.0460799999999999,5.000049991798719,0.05142774127470057,-0.04248758182677513,0
1153,0.04611999999999994,5.000707572102282,0.0672096541121064,-0.05826204013369876,0
1154,0.04615999999999998,5.000049991798719,0.08332035709616414,-0.0743653807440013,0
1155,0.04620000000000002,5.002022732708393,0.09943106037751487,-0.09046881377504817,0
1156,0.04624000000000006,5.000049991798719,0.11619934369861068,-0.10722991893495885,0
1157,0.0462800000000001,5.000049991798719,0.13395399697386687,-0.12497748610276041,0
1158,0.04631999999999992,5.000378781950543,0.1487495416410322,-0.13976603667975934,0
1159,0.04635999999999996,5.000378781950543,0.16321629666371967,-0.15422588959207392,0
1160,0.0464,5.000049991798719,0.17702547213016373,-0.16802825488939274,0
1161,0.04644000000000004,4.99972120164681,0.18754674881797762,-0.17854281330973337,0
1162,0.04648000000000008,5.000049991798719,0.19675286602012537,-0.18774230410541587,0
1163,0.046519999999999895,4.998077250885994,0.20299987417473864,-0.19398277767288064,0
1164,0.046559999999999935,4.99972120164681,0.2079317227481386,-0.19890818343571187,0
1165,0.046599999999999975,5.000049991798719,0.2115484117189183,-0.20251852132872078,0
1166,0.046640000000000015,5.000049991798719,0.21253478144070864,-0.2034986316607137,0
1167,0.046680000000000055,5.000049991798719,0.2108908319049833,-0.2018485143772984,0
1168,0.046720000000000095,5.000378781950543,0.20760293284241504,-0.19855453916224147,0
1169,0.04675999999999991,5.000049991798719,0.20168471455967557,-0.1926303362742698,0
1170,0.04679999999999995,4.998077250885994,0.1960952862168741,-0.1870350148245102,0
1171,0.04683999999999999,5.000049991798719,0.19017706800905274,-0.18111099495798624,0
1172,0.04688000000000003,4.99972120164681,0.18425884983988045,-0.17518706652731383,0
1173,0.04692000000000007,5.000049991798719,0.17834063170943854,-0.1692632294804882,0
1174,0.04696000000000011,5.000049991798719,0.1714360439396491,-0.1623531140863139,0
1175,0.04699999999999993,4.99972120164681,0.16420266633286126,-0.1551143000929924,0
1176,0.04703999999999997,5.000378781950543,0.15729807867164466,-0.14820436722791677,0
1177,0.04708000000000001,4.99972120164681,0.1497359112942392,-0.14063694577312325,0
1178,0.04712000000000005,4.999392411494816,0.1441464832738101,-0.13504235474454784,0
1179,0.04716000000000009,5.000378781950543,0.13757068564758101,-0.1284614851211609,0
1180,0.04719999999999991,5.000378781950543,0.13263883745980184,-0.12352465588793642,0
1181,0.04723999999999995,5.000378781950543,0.12803577917591782,-0.11891670745002274,0
1182,0.04727999999999999,5.000707572102282,0.12376151079085085,-0.11463763974102527,0
1183,0.04732000000000003,4.99972120164681,0.11981603229987327,-0.110687452693882,0
1184,0.04736000000000007,5.000378781950543,0.11554176395451755,-0.10640856649677478,0
1185,0.04740000000000011,5.000378781950543,0.1112674956298565,-0.10212977096041136,0
1186,0.04743999999999993,5.000378781950543,0.10732201719471773,-0.09817985588824171,0
1187,0.04747999999999997,4.99972120164681,0.10436290837996715,-0.09521640094474354,0
1188,0.04752000000000001,5.000049991798719,0.10008864010957542,-0.09093787698649071,0
1189,0.04756000000000005,5.000049991798719,0.09778711104951865,-0.08863218261105585,0
1190,0.04760000000000009,5.001036362253937,0.09515679213113215,-0.08599778868036563,0
1191,0.047639999999999905,4.999392411494816,0.09186889349424851,-0.0827059052638407,0
1192,0.047679999999999945,4.998734831190575,0.08858099486971066,-0.0794141120209105,0
1193,0.047719999999999985,4.99972120164681,0.08496430639699507,-0.07579361901863826,0
1194,0.047760000000000025,4.99972120164681,0.08233398751715135,-0.07315958562466238,0
1195,0.047800000000000065,5.000049991798719,0.08101882808020172,-0.07184080161459758,0
1196,0.047840000000000105,4.999392411494816,0.07805971935431567,-0.06887815818121146,0
1197,0.04787999999999992,5.000378781950543,0.07641577006649763,-0.06723076397511411,0
1198,0.04791999999999996,5.000378781950543,0.07510061063847716,-0.06591224934065024,0
1199,0.04796,4.99972120164681,0.07214150193269635,-0.06294987506188833,0
1200,0.04800000000000004,5.000707572102282,0.07082634251113593,-0.06163153962144896,0
1201,0.04804000000000008,5.000049991798719,0.06819602367398483,-0.05899813423917609,0
1202,0.0480799999999999,5.000049991798719,0.0672096541121064,-0.05800876752460525,0
1203,0.04811999999999994,4.99972120164681,0.06622328455134852,-0.057019490121275634,0
1204,0.04815999999999998,5.000378781950543,0.06392175558060653,-0.05471514253479519,0
1205,0.04820000000000002,5.000378781950543,0.06392175558060653,-0.054712413061625914,0
1206,0.04824000000000006,5.001365152405508,0.06326417587580183,-0.054052192940982194,0
1207,0.0482800000000001,5.000707572102282,0.06162022661597208,-0.052405692236432044,0
1208,0.04831999999999992,4.99972120164681,0.06030506721035353,-0.05108807027002936,0
1209,0.04835999999999996,4.99972120164681,0.06030506721035353,-0.05108569650503024,0
1210,0.0484,5.000378781950543,0.06030506721035353,-0.051083411446698146,0
1211,0.04844000000000004,5.000049991798719,0.05866111795613836,-0.04943726575073508,0
1212,0.04848000000000008,5.000378781950543,0.05734595855501376,-0.048119998433401104,0
1213,0.0485199999999999,5.000049991798719,0.05570200930641887,-0.046474029702128924,0
1214,0.04855999999999994,5.000707572102282,0.054058060060948765,-0.044828149314548454,0
1215,0.04859999999999998,5.000049991798719,0.05307169051516736,-0.04383993687330194,0
1216,0.04864000000000002,5.000049991798719,0.05340048036363608,-0.04416697197807465,0
1217,0.04868000000000006,4.99972120164681,0.052414110818605225,-0.04317893574528843,0
1218,0.0487200000000001,4.99972120164681,0.05142774127470057,-0.04219098747279042,0
1219,0.048759999999999915,4.999063621342738,0.050112581884580176,-0.04087433721551194,0
1220,0.048799999999999955,4.999392411494816,0.04846863264974746,-0.039228984876283554,0
1221,0.048839999999999995,4.99972120164681,0.04846863264974746,-0.03922766943503339,0
1222,0.048880000000000035,5.000378781950543,0.04748226311035131,-0.03824007201697378,0
1223,0.048920000000000075,4.999392411494816,0.04616710372624461,-0.03692377221529178,0
1224,0.048960000000000115,4.99972120164681,0.046495893572083224,-0.037251509002207264,0
1225,0.04899999999999993,5.000049991798719,0.044851944344144246,-0.035606593970626044,0
1226,0.04903999999999997,5.000378781950543,0.04419436465384674,-0.034948135627662774,0
1227,0.04908000000000001,5.000378781950543,0.04419436465384674,-0.034947344020738375,0
1228,0.04912000000000005,5.000707572102282,0.04255041543029908,-0.03330269012984416,0
1229,0.04916000000000009,5.000049991798719,0.04189283574175878,-0.03264449260644531,0
1230,0.04919999999999991,4.999392411494816,0.040577676366185214,-0.03132880212048743,0
1231,0.04923999999999995,4.99972120164681,0.04090646620989019,-0.031657147469346864,0
1232,0.04927999999999999,5.000378781950543,0.040577676366185214,-0.031327999636480336,0
1233,0.04932000000000003,5.000378781950543,0.04090646620989019,-0.03165651788593579,0
1234,0.04936000000000007,5.000049991798719,0.03959130683582415,-0.030341173200845672,0
1235,0.04940000000000011,4.999392411494816,0.04024888652260587,-0.03099865374722964,0
1236,0.04943999999999993,5.001036362253937,0.03860493730659416,-0.029354691447937106,0
1237,0.04947999999999997,5.000378781950543,0.0392625169926218,-0.030012343993383594,0
1238,0.04952000000000001,4.99972120164681,0.039920096679152195,-0.030670082366709636,0
1239,0.04956000000000005,4.99972120164681,0.04024888652260587,-0.0309991166081095,0
1240,0.04960000000000009,5.000049991798719,0.041564045897676996,-0.032314605975150054,0
1241,0.049639999999999906,5.000049991798719,0.041564045897676996,-0.03231502144311686,0
1242,0.049679999999999946,5.000707572102282,0.041564045897676996,-0.03231552226815919,0
1243,0.049719999999999986,5.000049991798719,0.04189283574175878,-0.032644898174543566,0
1244,0.049760000000000026,4.998077250885994,0.041564045897676996,-0.032316779509318355,0
1245,0.049800000000000066,5.000049991798719,0.04123525605372079,-0.03198874583917784,0
1246,0.049840000000000106,4.99972120164681,0.04255041543029908,-0.03330474626204988,0
1247,0.049879999999999924,5.000378781950543,0.04320799511934159,-0.03396325174649961,0
1248,0.049919999999999964,5.000378781950543,0.04353678496405114,-0.03429305201148436,0
1249,0.049960000000000004,4.99972120164681,0.04353678496405114,-0.03429414693150343,0
1250,0.050000000000000044,4.99972120164681,0.04287920527475757,-0.03363774653597264,0
1251,0.050040000000000084,5.000049991798719,0.04452315449893275,-0.03528295930078064,0
1252,0.0500799999999999,5.000049991798719,0.04353678496405114,-0.034297937425657246,0
1253,0.05011999999999994,5.000049991798719,0.043865574808886185,-0.03462815892076289,0
1254,0.05015999999999998,5.000049991798719,0.04452315449893275,-0.035287254122113476,0
1255,0.05020000000000002,4.99972120164681,0.044851944344144246,-0.035617643209320024,0
1256,0.05024000000000006,5.000049991798719,0.044851944344144246,-0.03561932605080283,0
1257,0.0502800000000001,5.000378781950543,0.043865574808886185,-0.03463472282445375,0
1258,0.05031999999999992,5.001036362253937,0.04320799511934159,-0.0339789927783271,0
1259,0.05035999999999996,5.000049991798719,0.041564045897676996,-0.03233697640081923,0
1260,0.0504,4.999392411494816,0.04123525605372079,-0.03201020246713805,0
1261,0.05044000000000004,5.001036362253937,0.04255041543029908,-0.033327460684641666,0
1262,0.05048000000000008,5.000049991798719,0.04222162558596615,-0.03300085247557151,0
1263,0.0505199999999999,4.99972120164681,0.04353678496405114,-0.034318276146101945,0
1264,0.05055999999999994,5.000378781950543,0.044851944344144246,-0.03563578233782902,0
1265,0.05059999999999998,5.000378781950543,0.04287920527475757,-0.03366547246043407,0
1266,0.05064000000000002,4.999063621342738,0.04255041543029908,-0.033339194048660314,0
1267,0.05068000000000006,5.000378781950543,0.04222162558596615,-0.033012997737209226,0
1268,0.0507200000000001,5.001036362253937,0.043865574808886185,-0.034659622451883795,0
1269,0.050759999999999916,5.000378781950543,0.043865574808886185,-0.034662379760360656,0
1270,0.050799999999999956,5.000378781950543,0.043865574808886185,-0.0346652187425861,0
1271,0.050839999999999996,5.000378781950543,0.045180734189481195,-0.03598329863536069,0
1272,0.050880000000000036,5.000378781950543,0.046495893572083224,-0.03730145991548382,0
1273,0.050920000000000076,4.998734831190575,0.04879742249646346,-0.03960607197729866,0
1274,0.050960000000000116,4.99972120164681,0.050112581884580176,-0.040924395596522715,0
1275,0.050999999999999934,5.000049991798719,0.05175653112254362,-0.0425715900122155,0
1276,0.051039999999999974,4.99972120164681,0.05372927021222988,-0.04454765507839518,0
1277,0.051080000000000014,5.000049991798719,0.054058060060948765,-0.04487985155370917,0
1278,0.051120000000000054,5.000049991798719,0.056688378855200935,-0.04751365747519412,0
1279,0.051160000000000094,5.000707572102282,0.05570200930641887,-0.046530855404019654,0
1280,0.05119999999999991,4.998406041038327,0.05635958900548195,-0.047192082780006396,0
1281,0.05123999999999995,5.000707572102282,0.05734595855501376,-0.048182180053925966,0
1282,0.05127999999999999,4.99972120164681,0.05603079915588792,-0.04687082827400969,0
1283,0.05132000000000003,5.000049991798719,0.05635958900548195,-0.04720350548420561,0
1284,0.05136000000000007,4.99972120164681,0.05537321945707481,-0.04622110288357907,0
1285,0.05140000000000011,5.000049991798719,0.054058060060948765,-0.044909989867417316,0
1286,0.05143999999999993,5.000049991798719,0.05372927021222988,-0.04458532567507306,0
1287,0.05147999999999997,5.000378781950543,0.05175653112254362,-0.04261679136162285,0
1288,0.05152000000000001,5.001036362253937,0.05142774127470057,-0.04229228525255575,0
1289,0.05156000000000005,5.000378781950543,0.050770161579389975,-0.04163906810046982,0
1290,0.05160000000000009,5.000378781950543,0.04945500219027131,-0.04032834990016642,0
1291,0.05163999999999991,4.99972120164681,0.04978379203736312,-0.04066165942204201,0
1292,0.05167999999999995,5.000049991798719,0.048139842803156765,-0.039022308188204985,0
1293,0.05171999999999999,4.999392411494816,0.04682468341804723,-0.03771182496790949,0
1294,0.05176000000000003,5.000049991798719,0.04616710372624461,-0.0370589994434698,0
1295,0.05180000000000007,5.000378781950543,0.045509524034943585,-0.036406251759432795,0
1296,0.05184000000000011,5.000707572102282,0.04287920527475757,-0.03378084268301501,0
1297,0.051879999999999926,5.000707572102282,0.044851944344144246,-0.035758568948531,0
1298,0.051919999999999966,5.000049991798719,0.04419436465384674,-0.035106053801837386,0
1299,0.051960000000000006,5.000707572102282,0.041564045897676996,-0.03248087677111918,0
1300,0.052000000000000046,5.003009103162085,0.04287920527475757,-0.03380125488913465,0
1301,0.052040000000000086,4.998734831190575,0.04189283574175878,-0.03282018094545546,0
1302,0.052079999999999904,5.001693942556992,0.04123525605372079,-0.03216797352729171,0
1303,0.052119999999999944,5.000707572102282,0.044851944344144246,-0.03579011059958556,0
1304,0.052159999999999984,5.003009103162085,0.037618567778495635,-0.028562259158519454,0
1305,0.052200000000000024,5.001036362253937,0.04353678496405114,-0.03448607764136305,0
1306,0.052240000000000064,5.000707572102282,0.04123525605372079,-0.032190226030300355,0
1307,0.052280000000000104,5.000378781950543,0.03959130683582415,-0.03055202994220861,0
1308,0.05231999999999992,4.99972120164681,0.04123525605372079,-0.03220180794829191,0
1309,0.05235999999999996,4.999392411494816,0.03893372714954513,-0.029906183317819038,0
1310,0.0524,5.004653053916539,0.0392625169926218,-0.030240952746541927,0
1311,0.05244000000000004,4.99972120164681,0.03893372714954513,-0.02991821762677825,0
1312,0.05248000000000008,4.999392411494816,0.03827614746376892,-0.029266767627004343,0
1313,0.0525199999999999,5.000049991798719,0.04090646620989019,-0.03190329084614199,0
1314,0.05255999999999994,5.000049991798719,0.04024888652260587,-0.03125199024251837,0
1315,0.05259999999999998,5.000049991798719,0.03893372714954513,-0.02994318438670123,0
1316,0.05264000000000002,4.99972120164681,0.03959130683582415,-0.030607191846056987,0
1317,0.05268000000000006,5.001365152405508,0.037947357621069405,-0.028969744481776936,0
1318,0.0527200000000001,4.999392411494816,0.037618567778495635,-0.028647530387958538,0
1319,0.05275999999999992,5.000378781950543,0.037618567778495635,-0.02865417985519842,0
1320,0.05279999999999996,5.000049991798719,0.0353170388840013,-0.02635937396595662,0
1321,0.05284,5.000049991798719,0.03564582872569445,-0.026694960169770486,0
1322,0.05288000000000004,5.000049991798719,0.036303408409458296,-0.027359409390709376,0
1323,0.05292000000000008,5.000707572102282,0.03465945920099257,-0.02572240271199308,0
1324,0.052959999999999896,5.001036362253937,0.03334429983648583,-0.02441425868666726,0
1325,0.052999999999999936,4.998734831190575,0.0323579303144281,-0.023434977129419533,0
1326,0.053039999999999976,4.999063621342738,0.0323579303144281,-0.023442137535399983,0
1327,0.053080000000000016,4.999392411494816,0.030713981113518377,-0.021805420996529455,0
1328,0.053120000000000056,5.001036362253937,0.031042770953448276,-0.022141515568795615,0
1329,0.053160000000000096,5.000378781950543,0.029727611594485073,-0.02083373282605737,0
1330,0.053199999999999914,4.99972120164681,0.030385191273714543,-0.021498760818348644,0
1331,0.053239999999999954,5.000049991798719,0.028741242076586612,-0.019862331443427327,0
1332,0.053279999999999994,5.000049991798719,0.027754872559823354,-0.01888355306968649,0
1333,0.053320000000000034,5.000049991798719,0.027097292882612076,-0.018233635667350902,0
1334,0.053360000000000074,5.000049991798719,0.027097292882612076,-0.01824136888448709,0
1335,0.053400000000000114,4.99972120164681,0.02676850304419573,-0.017920383015247912,0
1336,0.05343999999999993,5.000049991798719,0.027097292882612076,-0.0182570473840395,0
1337,0.05347999999999997,5.000378781950543,0.0264397132059056,-0.017607412607443335,0
1338,0.05352000000000001,4.99972120164681,0.027426082721154613,-0.018601797200458042,0
1339,0.05356000000000005,4.999392411494816,0.0264397132059056,-0.01762351274793702,0
1340,0.05360000000000009,5.000707572102282,0.027097292882612076,-0.018289247279030647,0
1341,0.05363999999999991,4.99972120164681,0.0264397132059056,-0.01763989205446056,0
1342,0.05367999999999995,5.000378781950543,0.02676850304419573,-0.01797697574812291,0
1343,0.05371999999999999,4.999392411494816,0.0264397132059056,-0.017656548973327385,0
1344,0.05376000000000003,4.99972120164681,0.0264397132059056,-0.017664981049234176,0
1345,0.05380000000000007,4.99972120164681,0.02676850304419573,-0.01800227177953971,0
1346,0.05384000000000011,5.000378781950543,0.027097292882612076,-0.018339631129186608,0
1347,0.05387999999999993,5.000707572102282,0.027426082721154613,-0.01867705890069485,0
1348,0.05391999999999997,5.000707572102282,0.027097292882612076,-0.018356975218789873,0
1349,0.05396000000000001,5.000707572102282,0.02676850304419573,-0.018036959562039885,0
1350,0.05400000000000005,4.99972120164681,0.025453343691792682,-0.016730642217112505,0
1351,0.05404000000000009,4.999063621342738,0.027097292882612076,-0.018383501041424354,0
1352,0.054079999999999906,4.99972120164681,0.027754872559823354,-0.019050057777782826,0
1353,0.054119999999999946,4.99972120164681,0.028083662398618273,-0.019387891900451586,0
1354,0.054159999999999986,4.998734831190575,0.027097292882612076,-0.01841063369155508,0
1355,0.054200000000000026,5.000049991798719,0.027097292882612076,-0.018419811819850557,0
1356,0.054240000000000066,5.000378781950543,0.026110923367741706,-0.01744268705185556,0
1357,0.054280000000000106,5.000378781950543,0.025453343691792682,-0.016794418538203508,0
1358,0.054319999999999924,5.000049991798719,0.023809394504130166,-0.015159846724552353,0
1359,0.054359999999999964,5.001036362253937,0.024795764016348754,-0.01615565961824402,0
1360,0.054400000000000004,5.000378781950543,0.024138184341410046,-0.015507589127445348,0
1361,0.054440000000000044,4.998734831190575,0.024795764016348754,-0.01617474358385776,0
1362,0.054480000000000084,4.999063621342738,0.024138184341410046,-0.015526804081858074,0
1363,0.0545199999999999,5.000378781950543,0.024795764016348754,-0.016194089114801122,0
1364,0.05455999999999994,5.000049991798719,0.024795764016348754,-0.01620385945094259,0
1365,0.05459999999999998,5.000378781950543,0.025124553854007567,-0.016542484395427014,0
1366,0.05464000000000002,4.99972120164681,0.025453343691792682,-0.016881173902747612,0
1367,0.05468000000000006,5.000378781950543,0.025782133529704057,-0.017219927764412286,0
1368,0.0547200000000001,4.999063621342738,0.0264397132059056,-0.017887535609578592,0
1369,0.05475999999999992,4.999063621342738,0.025782133529704057,-0.017240048038036145,0
1370,0.05479999999999996,4.99972120164681,0.0264397132059056,-0.017907783544566805,0
1371,0.05484,5.000049991798719,0.027754872559823354,-0.0192331622439557,0
1372,0.05488000000000004,4.99972120164681,0.027754872559823354,-0.019243444893540726,0
1373,0.05492000000000008,5.000049991798719,0.028083662398618273,-0.019582580474509663,0
1374,0.0549599999999999,4.99972120164681,0.027097292882612076,-0.01860661958124841,0
1375,0.05499999999999994,5.000049991798719,0.028083662398618273,-0.019603460388062724,0
1376,0.05503999999999998,5.001036362253937,0.027754872559823354,-0.019285204295145214,0
1377,0.05508000000000002,5.000049991798719,0.027097292882612076,-0.018638220605404196,0
1378,0.05512000000000006,5.000049991798719,0.028083662398618273,-0.019635248136518083,0
1379,0.0551600000000001,5.000378781950543,0.028083662398618273,-0.01964596796483225,0
1380,0.055199999999999916,4.99972120164681,0.027754872559823354,-0.01932795955265503,0
1381,0.055239999999999956,5.000049991798719,0.0264397132059056,-0.018023643008287113,0
1382,0.055279999999999996,5.000378781950543,0.024795764016348754,-0.016390597795375945,0
1383,0.055320000000000036,4.99972120164681,0.024795764016348754,-0.01640156272281986,0
1384,0.055360000000000076,5.000378781950543,0.021836655483104705,-0.0134534798510626,0
1385,0.055400000000000116,5.000378781950543,0.022494235156274286,-0.014122145702552227,0
1386,0.055439999999999934,5.000378781950543,0.02216544531962629,-0.013804502343397147,0
1387,0.055479999999999974,5.000378781950543,0.021507865646709548,-0.013158129229038633,0
1388,0.055520000000000014,5.000049991798719,0.02085028597429857,-0.012511815977700035,0
1389,0.055560000000000054,5.000378781950543,0.02117907581044083,-0.012851931878437674,0
1390,0.055600000000000094,4.99972120164681,0.020521496138282788,-0.012205737694970513,0
1391,0.05563999999999991,5.002680313010939,0.02085028597429857,-0.012545972223912454,0
1392,0.05567999999999995,5.000049991798719,0.01953512663099438,-0.011242316557480314,0
1393,0.05571999999999999,4.99972120164681,0.018877546960101396,-0.010596299326690373,0
1394,0.05576000000000003,5.000378781950543,0.019206336795484613,-0.010936710144270806,0
1395,0.05580000000000007,4.99972120164681,0.01953512663099438,-0.011277179282516848,0
