,seconds,Trig,EMG_amplitude,EMG_amplitude_filter,peaks
0,0.0,5.000378781950543,0.00013652655288240445,-0.0006178978014724145,0
1,4.0000000000040004e-05,5.000378781950543,0.0014516858662357995,0.0006956293559408889,0
2,8.000000000008001e-05,5.000378781950543,-0.00019226327513760522,-0.0009499493938650954,0
3,0.00011999999999989797,5.000049991798719,0.0021092655236763236,0.0013499523545180418,0
4,0.00015999999999993797,5.000707572102282,0.0024380553525874815,0.0016771177014901027,0
5,0.00019999999999997797,5.000049991798719,0.0014516858662357995,0.0006891263121764852,0
6,0.00024000000000001798,5.001365152405508,-0.0005210531030302584,-0.0012852319705933665,0
7,0.000280000000000058,4.99972120164681,-0.0005210531030302584,-0.001286848684162582,0
8,0.000320000000000098,5.000707572102282,-0.0005210531030302584,-0.0012884627873253774,0
9,0.00035999999999991594,5.000378781950543,0.0024380553525874815,0.0016690341860031723,0
10,0.00039999999999995595,5.000378781950543,0.003424424840084442,0.002653794822547026,0
11,0.00043999999999999595,5.001365152405508,0.003424424840084442,0.0026521886133877098,0
12,0.00048000000000003595,5.000049991798719,0.0007941062093044515,2.0266425695069593e-05,0
13,0.000520000000000076,5.000378781950543,0.003424424840084442,0.0026489841622570655,0
14,0.0005599999999998939,5.000707572102282,0.0014516858662357995,0.0006746469673281489,0
15,0.0005999999999999339,5.000707572102282,0.0007941062093044515,1.54717728923033e-05,0
16,0.0006399999999999739,5.000378781950543,0.001122896037706475,0.0003426687577986192,0
17,0.0006800000000000139,5.000378781950543,0.003424424840084442,0.0026426074211175774,0
18,0.0007200000000000539,5.001365152405508,0.0007941062093044515,1.070136613803385e-05,0
19,0.0007600000000000939,5.000049991798719,0.0004653163810297567,-0.00031967316105922523,0
20,0.0007999999999999119,5.000049991798719,0.0021092655236763236,0.0013226940183540346,0
21,0.0008399999999999519,5.000049991798719,0.0004653163810297567,-0.0003228343414296371,0
22,0.0008799999999999919,5.000049991798719,0.004410794328726292,0.003621067145627553,0
23,0.0009200000000000319,5.001036362253937,0.0030956350107915753,0.0023043341339473865,0
24,0.0009600000000000719,5.000378781950543,0.0004653163810297567,-0.00032755541227536304,0
25,0.001000000000000112,5.000378781950543,0.004410794328726292,0.0036163544066298314,0
26,0.0010399999999999299,5.000049991798719,0.0014516858662357995,0.000655680613397071,0
27,0.0010799999999999699,4.99972120164681,0.006054743479005864,0.005257175703847734,0
28,0.0011200000000000099,5.000707572102282,0.006054743479005864,0.005255616000319292,0
29,0.0011600000000000499,5.000049991798719,0.0027668451816259126,0.001966160828564155,0
30,0.0012000000000000899,5.000049991798719,0.0027668451816259126,0.001964606793698681,0
31,0.0012399999999999078,4.99972120164681,0.003424424840084442,0.0026206352671520085,0
32,0.0012799999999999478,5.000049991798719,0.001122896037706475,0.00031755813997372566,0
33,0.0013199999999999878,5.000378781950543,0.00013652655288240445,-0.0006703567991071746,0
34,0.0013600000000000279,5.000378781950543,0.001780475694892425,0.0009720497695220418,0
35,0.0014000000000000679,5.000049991798719,0.008027482463535476,0.007217516855986735,0
36,0.0014400000000001079,5.000049991798719,0.005397163818512657,0.004585661430308257,0
37,0.0014799999999999258,5.000049991798719,0.0024380553525874815,0.0016250190955641275,0
38,0.0015199999999999658,5.000049991798719,0.004082004499051814,0.0032674372953539247,0
39,0.0015600000000000058,4.99972120164681,0.0024380553525874815,0.0016219601346608493,0
40,0.0016000000000000458,5.000378781950543,-0.001178632758433426,-0.0019962530478480523,0
41,0.0016400000000000858,5.000707572102282,0.0007941062093044515,-2.5036198568926474e-05,0
42,0.0016799999999999038,5.000707572102282,0.003424424840084442,0.0026037632770635455,0
43,0.0017199999999999438,5.000049991798719,0.003424424840084442,0.002602247095502687,0
44,0.0017599999999999838,5.000049991798719,0.005397163818512657,0.004573472876225497,0
45,0.0018000000000000238,5.000707572102282,0.003753214669504526,0.002928013523629533,0
46,0.0018400000000000638,5.000378781950543,0.0027668451816259126,0.0019401368365360343,0
47,0.0018800000000001038,5.000707572102282,0.0030956350107915753,0.002267422481108347,0
48,0.0019199999999999218,5.000378781950543,0.0007941062093044515,-3.560748010884301e-05,0
49,0.0019599999999999618,5.000707572102282,0.004410794328726292,0.003579582514681054,0
50,0.0020000000000000018,4.99972120164681,0.005397163818512657,0.0045644569251615,0
51,0.0020400000000000418,5.000378781950543,0.005725953648695714,0.004891754731585553,0
52,0.002080000000000082,5.000049991798719,0.006383533309443135,0.005547845434334714,0
53,0.0021199999999998997,4.999392411494816,0.003424424840084442,0.002587251082945201,0
54,0.0021599999999999397,5.001036362253937,0.0027668451816259126,0.0019281886286227987,0
55,0.0021999999999999797,4.999063621342738,0.0024380553525874815,0.0015979191000797218,0
56,0.0022400000000000198,5.000049991798719,-0.00019226327513760522,-0.00103387612060579,0
57,0.0022800000000000598,5.000049991798719,0.0024380553525874815,0.0015949690308807367,0
58,0.0023200000000000998,5.000049991798719,0.004739584158527918,0.003895027487474735,0
59,0.0023599999999999177,4.99972120164681,0.00506837398845672,0.004222350105112021,0
60,0.0023999999999999577,5.000378781950543,0.0076986926324629085,0.00685120468403689,0
61,0.0024399999999999977,5.000049991798719,0.008027482463535476,0.007178533607386054,0
62,0.0024800000000000377,5.000049991798719,0.006054743479005864,0.005204336882631027,0
63,0.0025200000000000777,4.99972120164681,0.004082004499051814,0.003230143340081951,0
64,0.0025599999999998957,5.000707572102282,0.003424424840084442,0.00257111230627461,0
65,0.0025999999999999357,5.000707572102282,0.008027482463535476,0.007172721752757619,0
66,0.0026399999999999757,5.000049991798719,0.003424424840084442,0.0025682191603195563,0
67,0.0026800000000000157,4.999392411494816,0.004410794328726292,0.003553146898056511,0
68,0.0027200000000000557,5.000378781950543,0.004739584158527918,0.00388049820512856,0
69,0.0027600000000000957,5.000049991798719,0.004410794328726292,0.0035502730908578374,0
70,0.0027999999999999137,4.999392411494816,0.0014516858662357995,0.0005897325922358308,0
71,0.0028399999999999537,5.000049991798719,0.008027482463535476,0.007164100411810551,0
72,0.0028799999999999937,5.000707572102282,0.003424424840084442,0.002559617279101949,0
73,0.0029200000000000337,5.000707572102282,0.004739584158527918,0.003873354366807843,0
74,0.0029600000000000737,4.99972120164681,0.003424424840084442,0.0025567761061911064,0
75,0.0029999999999998916,5.000049991798719,0.006054743479005864,0.005185679101539597,0
76,0.0030399999999999316,5.000378781950543,0.009342641789095676,0.008472165076684442,0
77,0.0030799999999999716,5.000378781950543,0.003753214669504526,0.0028813289407954917,0
78,0.0031200000000000117,5.000378781950543,0.001122896037706475,0.00024960462135747616,0
79,0.0031600000000000517,5.000049991798719,0.008027482463535476,0.007152788698206451,0
80,0.0032000000000000917,4.999392411494816,0.006383533309443135,0.0055074405437875226,0
81,0.0032399999999999096,4.999392411494816,0.00506837398845672,0.004190885581112769,0
82,0.0032799999999999496,5.000049991798719,0.005725953648695714,0.0048470729682777505,0
83,0.0033199999999999896,4.998406041038327,0.00506837398845672,0.004188104413546364,0
84,0.0033600000000000296,5.000378781950543,0.00506837398845672,0.004186718907594027,0
85,0.0034000000000000696,5.000378781950543,0.0007941062093044515,-8.893097902098936e-05,0
86,0.0034400000000001096,5.000378781950543,0.005397163818512657,0.004512747931154639,0
87,0.0034799999999999276,4.99972120164681,0.008027482463535476,0.007141691295506665,0
88,0.0035199999999999676,5.000049991798719,0.0027668451816259126,0.0018796821612106639,0
89,0.0035600000000000076,5.000049991798719,0.005725953648695714,0.004837422214091856,0
90,0.0036000000000000476,5.000049991798719,0.005397163818512657,0.004507267417822369,0
91,0.0036400000000000876,5.000378781950543,0.005397163818512657,0.004505905909733267,0
92,0.0036799999999999056,5.000049991798719,0.003753214669504526,0.0028605987205192777,0
93,0.0037199999999999456,5.000049991798719,0.003424424840084442,0.0025304543286532094,0
94,0.0037599999999999856,5.000378781950543,0.007041112970698912,0.006145791384448875,0
95,0.0038000000000000256,4.999063621342738,0.006712323140007484,0.005815653976423741,0
96,0.0038400000000000656,4.99972120164681,0.007369902801517392,0.006471889567933509,0
97,0.0038800000000001056,5.000707572102282,0.007041112970698912,0.006141759184287425,0
98,0.0039199999999999235,5.000049991798719,0.005397163818512657,0.0044964730062755105,0
99,0.0039599999999999635,4.999392411494816,0.007041112970698912,0.006139088669457869,0
100,0.0040000000000000036,5.000378781950543,0.006054743479005864,0.005151389235392873,0
101,0.0040400000000000436,4.99972120164681,0.00506837398845672,0.00416369335890422,0
102,0.0040800000000000836,5.000049991798719,0.006712323140007484,0.005806319690738664,0
103,0.0041199999999999015,4.99972120164681,0.007041112970698912,0.006133790277717934,0
104,0.0041599999999999415,4.99972120164681,0.0076986926324629085,0.006790054281545059,0
105,0.0041999999999999815,5.000049991798719,0.004082004499051814,0.0031720540857336395,0
106,0.0042400000000000215,5.000049991798719,0.006383533309443135,0.005472274439012492,0
107,0.0042800000000000615,4.99972120164681,0.003424424840084442,0.0025118611275705433,0
108,0.0043200000000001015,5.001036362253937,0.01065780111668721,0.009743936186850582,0
109,0.0043599999999999195,5.000707572102282,0.011315380781244458,0.010400218268566895,0
110,0.0043999999999999595,5.000049991798719,0.008685062126061585,0.007768605674736023,0
111,0.0044399999999999995,5.000378781950543,0.009013851957515154,0.008096105221435487,0
112,0.0044800000000000395,5.000378781950543,0.008356272294735026,0.007437238937485904,0
113,0.0045200000000000795,4.99972120164681,0.007369902801517392,0.006449586496363945,0
114,0.0045599999999998975,4.99972120164681,0.006712323140007484,0.005790727569885008,0
115,0.0045999999999999375,5.000049991798719,0.008027482463535476,0.007104611321039085,0
116,0.0046399999999999775,4.99972120164681,0.013616909611190692,0.012692766598564931,0
117,0.0046800000000000175,5.000049991798719,0.012630540111881347,0.011705128941009748,0
118,0.0047200000000000575,5.000049991798719,0.009342641789095676,0.008415966181490266,0
119,0.0047600000000000975,4.99972120164681,0.007369902801517392,0.006441966488308122,0
120,0.0047999999999999154,5.000707572102282,0.008027482463535476,0.007098289185459615,0
121,0.0048399999999999554,4.99972120164681,0.009013851957515154,0.00808340546490662,0
122,0.0048799999999999955,4.99972120164681,0.00506837398845672,0.00413667804123535,0
123,0.0049200000000000355,4.99972120164681,0.005725953648695714,0.00479301201635645,0
124,0.0049600000000000755,5.000707572102282,0.009342641789095676,0.008408458250697737,0
125,0.004999999999999893,4.99972120164681,0.00506837398845672,0.004132952332612725,0
126,0.005039999999999933,5.000378781950543,0.006712323140007484,0.005775667164872496,0
127,0.005079999999999973,5.000049991798719,0.005397163818512657,0.004459277331773209,0
128,0.005120000000000013,5.000049991798719,0.006383533309443135,0.0054444201283061775,0
129,0.005160000000000053,5.000378781950543,0.0030956350107915753,0.002155298961973389,0
130,0.0052000000000000934,5.000049991798719,0.0027668451816259126,0.0018252901013409493,0
131,0.005239999999999911,5.000378781950543,0.005397163818512657,0.004454393552462348,0
132,0.005279999999999951,5.000049991798719,0.008356272294735026,0.007412290698096534,0
133,0.005319999999999991,5.000049991798719,0.005397163818512657,0.004451974755927573,0
134,0.005360000000000031,4.99972120164681,0.008027482463535476,0.007081089809098424,0
135,0.005400000000000071,4.99972120164681,0.0076986926324629085,0.00675110026971013,0
136,0.005440000000000111,4.999063621342738,0.006054743479005864,0.005105955300903745,0
137,0.005479999999999929,5.000378781950543,0.004082004499051814,0.003132024407985336,0
138,0.005519999999999969,5.000378781950543,0.00506837398845672,0.004117205896217868,0
139,0.005560000000000009,5.000378781950543,0.004082004499051814,0.003129652326827927,0
140,0.005600000000000049,5.000378781950543,0.009013851957515154,0.008060319635877215,0
141,0.005640000000000089,5.000049991798719,0.008027482463535476,0.0070727739324263714,0
142,0.005679999999999907,5.001036362253937,0.006712323140007484,0.005756442348730189,0
143,0.005719999999999947,5.001365152405508,0.009013851957515154,0.008056802864720863,0
144,0.005759999999999987,4.998406041038327,0.00506837398845672,0.004110160562132929,0
145,0.005800000000000027,5.000378781950543,0.004739584158527918,0.003780210375986442,0
146,0.005840000000000067,4.997748460733576,0.012630540111881347,0.011670009959746312,0
147,0.005880000000000107,5.000378781950543,0.007369902801517392,0.0064082202757131815,0
148,0.005919999999999925,5.001365152405508,0.008027482463535476,0.007064651569274593,0
149,0.005959999999999965,5.000049991798719,0.009671431620803153,0.008707456372574082,0
150,0.006000000000000005,5.000707572102282,0.007041112970698912,0.006075997392253897,0
151,0.006040000000000045,4.99972120164681,0.004739584158527918,0.0037733322828706695,0
152,0.006080000000000085,4.999392411494816,0.005725953648695714,0.004758569518069082,0
153,0.006119999999999903,4.998406041038327,0.01032901128459894,0.009360498950472527,0
154,0.006159999999999943,5.002680313010939,0.005397163818512657,0.004427527341570382,0
155,0.006199999999999983,5.001365152405508,0.009342641789095676,0.008371885239223257,0
156,0.006240000000000023,5.000378781950543,0.00506837398845672,0.004096501444729151,0
157,0.006280000000000063,5.000378781950543,0.007041112970698912,0.006068128521367847,0
158,0.006320000000000103,5.000049991798719,0.006054743479005864,0.005080651221486984,0
159,0.006359999999999921,4.999392411494816,0.008027482463535476,0.007052286504395784,0
160,0.006399999999999961,4.99972120164681,0.007369902801517392,0.006393607256462467,0
161,0.006440000000000001,5.000049991798719,0.006712323140007484,0.005734932133868683,0
162,0.006480000000000041,5.000378781950543,0.021507865646709548,0.02052938331343114,0
163,0.006520000000000081,4.99972120164681,0.00506837398845672,0.004088804471083044,0
164,0.006559999999999899,5.000378781950543,0.0014516858662357995,0.00047103331689822905,0
165,0.006599999999999939,4.99972120164681,0.004082004499051814,0.0031002730789558173,0
166,0.006639999999999979,5.000378781950543,0.006712323140007484,0.005729517019419588,0
167,0.006680000000000019,4.99972120164681,0.00506837398845672,0.004084497346691422,0
168,0.006720000000000059,5.000378781950543,0.007369902801517392,0.006384959826924001,0
169,0.006760000000000099,4.99972120164681,0.0027668451816259126,0.0017808400715753781,0
170,0.006799999999999917,5.000378781950543,0.004082004499051814,0.003094941459923463,0
171,0.006839999999999957,5.000049991798719,0.008356272294735026,0.00736815554190328,0
172,0.006879999999999997,5.000049991798719,0.004082004499051814,0.003092838256872851,0
173,0.006920000000000037,5.000707572102282,0.004082004499051814,0.0030917930008501457,0
174,0.006960000000000077,5.000049991798719,0.003753214669504526,0.002761962157559545,0
175,0.006999999999999895,4.99972120164681,0.004082004499051814,0.0030897152245842724,0
176,0.007039999999999935,5.000049991798719,0.005725953648695714,0.004732631871854155,0
177,0.007079999999999975,5.000049991798719,0.004739584158527918,0.0037452341483750606,0
178,0.007120000000000015,5.000707572102282,0.005397163818512657,0.004401789853011724,0
179,0.007160000000000055,5.000378781950543,0.005397163818512657,0.004400770184513658,0
180,0.007200000000000095,5.001693942556992,0.0024380553525874815,0.001440646345813429,0
181,0.007239999999999913,5.000707572102282,0.001780475694892425,0.000782055619925494,0
182,0.007279999999999953,5.000049991798719,0.004410794328726292,0.003411367498993946,0
183,0.007319999999999993,5.000378781950543,0.009342641789095676,0.008342212526856733,0
184,0.007360000000000033,5.000378781950543,0.006712323140007484,0.005710895776338134,0
185,0.007400000000000073,5.000049991798719,0.005725953648695714,0.004723532523475464,0
186,0.007440000000000113,5.000049991798719,0.008027482463535476,0.00702407192543307,0
187,0.007479999999999931,5.000378781950543,0.006054743479005864,0.0050503478854651476,0
188,0.007519999999999971,5.000049991798719,0.00506837398845672,0.004062997705682435,0
189,0.007560000000000011,5.000378781950543,0.004082004499051814,0.0030756519019953465,0
190,0.007600000000000051,5.000378781950543,0.009671431620803153,0.008664107093148226,0
191,0.007640000000000091,4.999392411494816,0.007041112970698912,0.006032820904847236,0
192,0.007679999999999909,4.99972120164681,0.010986590948902406,0.009977335745959236,0
193,0.007719999999999949,4.99972120164681,0.006712323140007484,0.005702109209767168,0
194,0.007759999999999989,5.000049991798719,0.008685062126061585,0.007673893886993022,0
195,0.007800000000000029,5.000707572102282,0.006712323140007484,0.005700205019239545,0
196,0.00784000000000007,5.000049991798719,-0.003808951374948702,-0.004822014941641809,0
197,0.00788000000000011,5.000049991798719,0.0027668451816259126,0.0017528406134124704,0
198,0.007919999999999927,4.99972120164681,0.003424424840084442,0.0024094837233714175,0
199,0.007959999999999967,5.000378781950543,0.003424424840084442,0.0024085516364936964,0
200,0.008000000000000007,5.000049991798719,0.0027668451816259126,0.0017500443613655578,0
201,0.008040000000000047,5.000378781950543,0.00013652655288240445,-0.0008811974052681153,0
202,0.008080000000000087,5.000378781950543,-0.004137741201439435,-0.005156383810144315,0
203,0.008119999999999905,5.000049991798719,-0.0018362124133269458,-0.0028557691767090373,0
204,0.008159999999999945,5.000378781950543,-0.0024937920677107622,-0.0035142584813666247,0
205,0.008199999999999985,4.99972120164681,-0.0008498429307955274,-0.0018712144818105424,0
206,0.008240000000000025,4.99972120164681,0.0004653163810297567,-0.000556955785933763,0
207,0.008280000000000065,5.000049991798719,-0.0018362124133269458,-0.0028593806663475023,0
208,0.008320000000000105,5.000378781950543,-0.00019226327513760522,-0.0012163230758581783,0
209,0.008359999999999923,4.99972120164681,0.004739584158527918,0.0037146373569145997,0
210,0.008399999999999963,5.000049991798719,0.0004653163810297567,-0.000560512866234133,0
211,0.008440000000000003,5.000049991798719,0.0021092655236763236,0.0010825583944235181,0
212,0.008480000000000043,5.000049991798719,0.0024380553525874815,0.001410474913411468,0
213,0.008520000000000083,5.000049991798719,0.0024380553525874815,0.0014096061839425108,0
214,0.008559999999999901,5.000707572102282,0.003424424840084442,0.0023951115307977553,0
215,0.008599999999999941,5.000378781950543,0.001122896037706475,9.272318496270169e-05,0
216,0.008639999999999981,5.000378781950543,0.00013652655288240445,-0.0008945012377921061,0
217,0.008680000000000021,5.002022732708393,0.001122896037706475,9.101792295359429e-05,0
218,0.008720000000000061,5.000049991798719,0.0030956350107915753,0.002062911194122959,0
219,0.008760000000000101,4.99972120164681,0.0021092655236763236,0.0010757006355490576,0
220,0.008799999999999919,5.000378781950543,0.004410794328726292,0.0033763930078760333,0
221,0.008839999999999959,5.000378781950543,0.0030956350107915753,0.002060401904216642,0
222,0.008879999999999999,4.99972120164681,0.004082004499051814,0.003045944261997208,0
223,0.008920000000000039,5.000049991798719,0.001780475694892425,0.0007435929908338251,0
224,0.008960000000000079,5.000378781950543,0.0024380553525874815,0.0014003548532151712,0
225,0.008999999999999897,5.000049991798719,0.003424424840084442,0.0023859112252871974,0
226,0.009039999999999937,5.000707572102282,0.0024380553525874815,0.001398733310436415,0
227,0.009079999999999977,5.000378781950543,0.003424424840084442,0.002384299066816779,0
228,0.009120000000000017,5.000378781950543,0.003424424840084442,0.0023835000400872623,0
229,0.009160000000000057,5.000049991798719,0.0030956350107915753,0.0020539158965854915,0
230,0.009200000000000097,4.99972120164681,0.001780475694892425,0.0007379669871152199,0
231,0.009239999999999915,5.000378781950543,0.003424424840084442,0.0023811312674746504,0
232,0.009279999999999955,5.000378781950543,0.004410794328726292,0.003366720628106735,0
233,0.009319999999999995,5.000378781950543,0.003424424840084442,0.002379575756345695,0
234,0.009360000000000035,5.000378781950543,0.0030956350107915753,0.002050015296875391,0
235,0.009400000000000075,5.000049991798719,0.003753214669504526,0.0027068290863872134,0
236,0.009439999999999893,5.000378781950543,0.00013652655288240445,-0.000910620130441844,0
237,0.009479999999999933,5.000049991798719,0.0007941062093044515,-0.0002537967972314004,0
238,0.009519999999999973,5.000049991798719,0.003424424840084442,0.0023757702953166805,0
239,0.009560000000000013,5.000049991798719,0.00013652655288240445,-0.0009128747371700448,0
240,0.009600000000000053,5.000049991798719,0.00013652655288240445,-0.0009136166815568907,0
241,0.009640000000000093,5.000707572102282,0.0027668451816259126,0.0017159648116312916,0
242,0.009679999999999911,4.999392411494816,0.004739584158527918,0.003687971469726175,0
243,0.009719999999999951,5.000707572102282,-0.0005210531030302584,-0.0015733932859912838,0
244,0.009759999999999991,5.000378781950543,0.0024380553525874815,0.0013849925079975189,0
245,0.009800000000000031,4.99972120164681,0.001780475694892425,0.0007266950290692421,0
246,0.009840000000000071,5.000707572102282,0.00013652655288240445,-0.0009179670859301211,0
247,0.009880000000000111,5.000707572102282,-0.002165002240582567,-0.0032202039963096464,0
248,0.009919999999999929,4.99972120164681,0.0007941062093044515,-0.0002617987994487838,0
249,0.009959999999999969,5.000378781950543,0.0021092655236763236,0.001052662133581606,0
250,0.010000000000000009,5.000049991798719,0.0021092655236763236,0.0010519686317036606,0
251,0.010040000000000049,5.000378781950543,0.0030956350107915753,0.002037649504165905,0
252,0.010080000000000089,5.000378781950543,0.003753214669504526,0.002694545443194681,0
253,0.010119999999999907,5.000707572102282,0.004082004499051814,0.003022656455752961,0
254,0.010159999999999947,5.000049991798719,-0.0005210531030302584,-0.0015810750529142324,0
255,0.010199999999999987,5.000378781950543,0.00013652655288240445,-0.0009241643854917556,0
256,0.010240000000000027,4.99972120164681,0.004082004499051814,0.0030206494979557372,0
257,0.010280000000000067,5.000049991798719,0.00013652655288240445,-0.0009254875775117537,0
258,0.010320000000000107,5.000378781950543,-0.0015074225859438989,-0.0025700909045745833,0
259,0.010359999999999925,4.999063621342738,0.0007941062093044515,-0.00026921134888135533,0
260,0.010399999999999965,5.000049991798719,0.0021092655236763236,0.0010453036822187256,0
261,0.010440000000000005,4.999392411494816,0.0024380553525874815,0.0013734541917253679,0
262,0.010480000000000045,5.000049991798719,0.00013652655288240445,-0.00092870895595104,0
263,0.010520000000000085,5.000049991798719,-0.0018362124133269458,-0.0029020772911507037,0
264,0.010559999999999903,5.000049991798719,0.0007941062093044515,-0.0002723830509988893,0
265,0.010599999999999943,5.000049991798719,0.0014516858662357995,0.00038457721747515907,0
266,0.010639999999999983,5.000378781950543,0.0007941062093044515,-0.0002736168263978763,0
267,0.010680000000000023,5.000707572102282,0.0007941062093044515,-0.0002742262043488909,0
268,0.010720000000000063,4.99972120164681,0.001122896037706475,5.395926254952825e-05,0
269,0.010760000000000103,5.000707572102282,0.003753214669504526,0.0026836785567297527,0
270,0.01079999999999992,5.000049991798719,0.0007941062093044515,-0.0002760242097824134,0
271,0.01083999999999996,4.99972120164681,0.0024380553525874815,0.0013673356658957412,0
272,0.01088,5.000378781950543,-0.0005210531030302584,-0.0015923570112366774,0
273,0.01092000000000004,5.000049991798719,-0.002165002240582567,-0.003236885316849062,0
274,0.01096000000000008,5.000378781950543,0.0027668451816259126,0.0016943879980997416,0
275,0.010999999999999899,5.000049991798719,0.006383533309443135,0.005310507086784833,0
276,0.011039999999999939,5.000378781950543,0.00013652655288240445,-0.0009370636334720493,0
277,0.011079999999999979,5.000378781950543,0.001780475694892425,0.0007063266275674435,0
278,0.011120000000000019,5.000707572102282,0.0027668451816259126,0.0016921423233268763,0
279,0.011160000000000059,5.000049991798719,-0.00019226327513760522,-0.0012675148271622354,0
280,0.011200000000000099,5.000378781950543,-0.0008498429307955274,-0.001925638072064217,0
281,0.011239999999999917,5.000378781950543,0.004410794328726292,0.003334460709909208,0
282,0.011279999999999957,5.000049991798719,0.0014516858662357995,0.00037481888876112965,0
283,0.011319999999999997,5.001693942556992,-0.001178632758433426,-0.0022560279684987966,0
284,0.011360000000000037,4.999392411494816,-0.00019226327513760522,-0.0012701815845698088,0
285,0.011400000000000077,5.000049991798719,-0.001178632758433426,-0.002257069026870757,0
286,0.011439999999999895,5.000049991798719,0.0007941062093044515,-0.00028484287065767225,0
287,0.011479999999999935,4.99972120164681,0.0024380553525874815,0.0013585986156802819,0
288,0.011519999999999975,5.000378781950543,-0.0015074225859438989,-0.002587381818136375,0
289,0.011560000000000015,5.000378781950543,0.0024380553525874815,0.0013575987938302322,0
290,0.011600000000000055,5.000707572102282,-0.001178632758433426,-0.00225958146799363,0
291,0.011640000000000095,4.99972120164681,-0.00019226327513760522,-0.0012736989527171146,0
292,0.011679999999999913,5.000707572102282,0.0021092655236763236,0.0010273480678634939,0
293,0.011719999999999953,5.000707572102282,0.0014516858662357995,0.00036929182895842046,0
294,0.011759999999999993,5.000049991798719,0.0014516858662357995,0.00036882045122582337,0
295,0.011800000000000033,5.000049991798719,-0.0018362124133269458,-0.002919543995394018,0
296,0.011840000000000073,5.000378781950543,-0.0015074225859438989,-0.0025912151174687145,0
297,0.011880000000000113,5.000378781950543,0.0007941062093044515,-0.00029014204717463504,0
298,0.01191999999999993,5.000049991798719,-0.0031513717215847087,-0.0042360704716302685,0
299,0.01195999999999997,4.99972120164681,-0.00019226327513760522,-0.0012774072804973792,0
300,0.01200000000000001,5.000049991798719,0.0024380553525874815,0.0013524713370103372,0
301,0.01204000000000005,5.000378781950543,-0.0005210531030302584,-0.0016070718769032977,0
302,0.01208000000000009,4.99972120164681,0.001122896037706475,3.644776426364e-05,0
303,0.012119999999999909,5.000378781950543,0.0007941062093044515,-0.000292766298197503,0
304,0.012159999999999949,5.000049991798719,0.0007941062093044515,-0.00029318525998148,0
305,0.012199999999999989,4.999392411494816,0.001780475694892425,0.0006927705428419716,0
306,0.012240000000000029,4.99972120164681,-0.003808951374948702,-0.004897064924020108,0
307,0.012280000000000069,5.000378781950543,0.001122896037706475,3.437938406153666e-05,0
308,0.012320000000000109,5.000049991798719,0.0021092655236763236,0.0010203510645888625,0
309,0.012359999999999927,5.000707572102282,-0.00019226327513760522,-0.0012815702338733305,0
310,0.012399999999999967,5.000049991798719,-0.00019226327513760522,-0.0012819574210844809,0
311,0.012440000000000007,5.000378781950543,-0.0018362124133269458,-0.0029262884274254388,0
312,0.012480000000000047,5.000378781950543,-0.0015074225859438989,-0.0025978751425325556,0
313,0.012520000000000087,5.000049991798719,-0.0015074225859438989,-0.002598246352779882,0
314,0.012559999999999905,5.000049991798719,-0.001178632758433426,-0.002269822396713102,0
315,0.012599999999999945,5.000049991798719,0.0030956350107915753,0.002004084846411993,0
316,0.012639999999999985,4.99972120164681,0.00013652655288240445,-0.0009553787857338137,0
317,0.012680000000000025,5.000378781950543,0.001122896037706475,3.064088321562148e-05,0
318,0.012720000000000065,5.000378781950543,0.0021092655236763236,0.0010166659181507958,0
319,0.012760000000000105,5.000378781950543,-0.0018362124133269458,-0.0029291510985900594,0
320,0.012799999999999923,4.998406041038327,-0.0005210531030302584,-0.001614325490297627,0
321,0.012839999999999963,4.99972120164681,-0.0028225818947114484,-0.0039161825998344155,0
322,0.012880000000000003,5.000049991798719,0.0004653163810297567,-0.0006286072514058044,0
323,0.012920000000000043,4.99972120164681,-0.0024937920677107622,-0.003588033230542566,0
324,0.012960000000000083,5.001036362253937,-0.0018362124133269458,-0.00293076570328636,0
325,0.0129999999999999,5.000378781950543,-0.0015074225859438989,-0.002602282593431101,0
326,0.01303999999999994,5.000049991798719,0.00013652655288240445,-0.0009586347562227223,0
327,0.01307999999999998,5.000707572102282,0.0021092655236763236,0.001013808335151974,0
328,0.01312000000000002,5.001036362253937,-0.0015074225859438989,-0.002603170225421176,0
329,0.01316000000000006,4.99972120164681,0.00013652655288240445,-0.0009595061028352218,0
330,0.0132000000000001,5.000049991798719,-0.0008498429307955274,-0.0019461551618159666,0
331,0.013239999999999919,5.000707572102282,-0.0005210531030302584,-0.0016176394622123887,0
332,0.013279999999999959,5.000049991798719,-0.0005210531030302584,-0.0016179081370507773,0
333,0.013319999999999999,4.999392411494816,-0.0005210531030302584,-0.0016181713524051353,0
334,0.013360000000000039,4.99972120164681,-0.0005210531030302584,-0.0016184291021362372,0
335,0.013400000000000079,5.001036362253937,-0.00019226327513760522,-0.0012898915522337557,0
336,0.013439999999999896,4.999392411494816,-0.0018362124133269458,-0.0029340874905762595,0
337,0.013479999999999936,5.000049991798719,-0.001178632758433426,-0.0022767491519244693,0
338,0.013519999999999976,5.000049991798719,0.0021092655236763236,0.0010109133039077356,0
339,0.013560000000000016,5.000049991798719,-0.0024937920677107622,-0.0035923746177616758,0
340,0.013600000000000056,5.000378781950543,0.001122896037706475,2.4088659377707183e-05,0
341,0.013640000000000096,5.000049991798719,-0.0018362124133269458,-0.002935239111941641,0
342,0.013679999999999914,5.000378781950543,-0.001178632758433426,-0.002277873263376546,0
343,0.013719999999999954,5.000707572102282,-0.0008498429307955274,-0.0019492917221658962,0
344,0.013759999999999994,5.000049991798719,-0.0018362124133269458,-0.002935863965301674,0
345,0.013800000000000034,5.000707572102282,-0.0005210531030302584,-0.0016209018838867465,0
346,0.013840000000000074,5.000049991798719,-0.0005210531030302584,-0.0016210935751682356,0
347,0.013879999999999892,5.000049991798719,0.0021092655236763236,0.001009038903712713,0
348,0.013919999999999932,5.000378781950543,-0.0031513717215847087,-0.0042517789400846285,0
349,0.013959999999999972,5.000378781950543,-0.0031513717215847087,-0.004251953983520333,0
350,0.014000000000000012,4.99972120164681,-0.005124110680146385,-0.006224862424628028,0
351,0.014040000000000052,5.000049991798719,-0.0028225818947114484,-0.003923497555082616,0
352,0.014080000000000092,4.99972120164681,-0.0018362124133269458,-0.0029372864171866306,0
353,0.01411999999999991,4.999063621342738,0.0007941062093044515,-0.0003071205599205777,0
354,0.01415999999999995,5.002680313010939,0.0007941062093044515,-0.00030726774146296607,0
355,0.01419999999999999,4.99972120164681,-0.0028225818947114484,-0.003924097437520948,0
356,0.01424000000000003,4.99972120164681,0.0014516858662357995,0.00035003432653939724,0
357,0.01428000000000007,5.002351522859708,0.001780475694892425,0.0006786937590966845,0
358,0.01432000000000011,4.998406041038327,-0.004137741201439435,-0.005239647926937113,0
359,0.014359999999999928,4.997419670581074,0.0030956350107915753,0.001993609107576593,0
360,0.014399999999999968,4.99643330012306,-0.0005210531030302584,-0.0016231925664132799,0
361,0.014440000000000008,5.001693942556992,-0.0024937920677107622,-0.0035960394681706256,0
362,0.014480000000000048,4.999392411494816,0.0004653163810297567,-0.0006370333278965233,0
363,0.014520000000000088,4.99972120164681,-0.0005210531030302584,-0.0016234994863160495,0
364,0.014559999999999906,5.000378781950543,-0.0028225818947114484,-0.003925119312776179,0
365,0.014599999999999946,5.000049991798719,-0.0018362124133269458,-0.002938835221139224,0
366,0.014639999999999986,5.000378781950543,-0.0018362124133269458,-0.002938914960427437,0
367,0.014680000000000026,5.000378781950543,0.0014516858662357995,0.00034890923571143106,0
368,0.014720000000000066,5.000378781950543,-0.0008498429307955274,-0.001952687983497407,0
369,0.014760000000000106,5.001036362253937,-0.001178632758433426,-0.002281540566707457,0
370,0.014799999999999924,5.001036362253937,0.00013652655288240445,-0.0009664383390224846,0
371,0.014839999999999964,5.000707572102282,-0.0018362124133269458,-0.0029392287116085745,0
372,0.014880000000000004,5.000049991798719,-0.0018362124133269458,-0.0029392744354415287,0
373,0.014920000000000044,5.000378781950543,-0.0018362124133269458,-0.0029393144714642237,0
374,0.014960000000000084,5.000707572102282,-0.00019226327513760522,-0.0012953996762440911,0
375,0.014999999999999902,5.000707572102282,0.0021092655236763236,0.00100610047787406,0
376,0.015039999999999942,5.000378781950543,-0.003808951374948702,-0.004912139361976696,0
377,0.015079999999999982,4.99972120164681,-0.002165002240582567,-0.0032682074601930186,0
378,0.015120000000000022,5.000049991798719,-0.0024937920677107622,-0.0035970088061105686,0
379,0.015160000000000062,5.000049991798719,-0.0028225818947114484,-0.003925804432981141,0
380,0.015200000000000102,5.000049991798719,-0.003808951374948702,-0.004912173989065937,0
381,0.01523999999999992,5.000378781950543,0.0004653163810297567,-0.0006379005798333451,0
382,0.01527999999999996,5.000049991798719,0.001122896037706475,1.9690464254950072e-05,0
383,0.01532,5.000049991798719,0.001122896037706475,1.9707590856110667e-05,0
384,0.01536000000000004,5.000049991798719,-0.0005210531030302584,-0.001624218679081398,0
385,0.01540000000000008,5.000049991798719,0.00013652655288240445,-0.0009666104031866751,0
386,0.015439999999999898,4.99972120164681,-0.00019226327513760522,-0.0012953658570807546,0
387,0.015479999999999938,5.000049991798719,-0.002165002240582567,-0.003268064689318672,0
388,0.015519999999999978,5.000378781950543,-0.0018362124133269458,-0.002939228964861481,0
389,0.015560000000000018,5.000378781950543,0.0004653163810297567,-0.000637648504419141,0
390,0.015600000000000058,5.000049991798719,0.0004653163810297567,-0.0006375910645838065,0
391,0.0156400000000001,5.000049991798719,-0.0024937920677107622,-0.0035966362948976266,0
392,0.015679999999999916,5.000049991798719,0.00013652655288240445,-0.0009662486724687342,0
393,0.015719999999999956,5.000049991798719,-0.0015074225859438989,-0.002610123021256646,0
394,0.015759999999999996,4.999392411494816,-0.0031513717215847087,-0.004253991573886841,0
395,0.015800000000000036,4.99972120164681,-0.0028225818947114484,-0.003925115366285302,0
396,0.015840000000000076,4.99972120164681,-0.00019226327513760522,-0.0012947045635442356,0
397,0.015879999999999894,5.000049991798719,0.003424424840084442,0.002322081541981076,0
398,0.015919999999999934,5.000378781950543,0.00013652655288240445,-0.0009657129431087897,0
399,0.015959999999999974,5.000378781950543,-0.0015074225859438989,-0.0026095524633654365,0
400,0.016000000000000014,4.99972120164681,-0.0024937920677107622,-0.0035958065054808815,0
401,0.016040000000000054,5.000049991798719,-0.004137741201439435,-0.005239634373876446,0
402,0.016080000000000094,5.001036362253937,-0.005452900506126915,-0.006554666582973583,0
403,0.016119999999999912,5.001036362253937,-0.0005210531030302584,-0.0016226862494782412,0
404,0.016159999999999952,4.99972120164681,-0.0005210531030302584,-0.0016225474797445557,0
405,0.016199999999999992,4.99972120164681,-0.00348016154833046,-0.004581511311473937,0
406,0.016240000000000032,5.000049991798719,0.0014516858662357995,0.00035048656497784706,0
407,0.016280000000000072,5.000049991798719,-0.002165002240582567,-0.003266045227187294,0
408,0.016320000000000112,4.999392411494816,-0.0024937920677107622,-0.0035946728824662252,0
409,0.01635999999999993,5.000049991798719,-0.0008498429307955274,-0.0019505557121020207,0
410,0.01639999999999997,5.000378781950543,0.0007941062093044515,-0.0003064326725744111,0
411,0.01644000000000001,5.000049991798719,-0.0024937920677107622,-0.003594151179829127,0
412,0.01648000000000005,5.000378781950543,-0.0005210531030302584,-0.0016212265707258532,0
413,0.01652000000000009,5.000049991798719,-0.00019226327513760522,-0.001292245219443577,0
414,0.016559999999999908,5.000707572102282,-0.0031513717215847087,-0.004251156259254496,0
415,0.016599999999999948,5.000049991798719,-0.00019226327513760522,-0.0012918445186698509,0
416,0.016639999999999988,5.000378781950543,-0.0008498429307955274,-0.0019492149884590094,0
417,0.016680000000000028,5.000049991798719,-0.004466531027802631,-0.005565688003661255,0
418,0.016720000000000068,5.000049991798719,-0.0031513717215847087,-0.004250307715522546,0
419,0.016760000000000108,5.000049991798719,-0.0015074225859438989,-0.0026061316936902335,0
420,0.016799999999999926,5.000378781950543,-0.0015074225859438989,-0.002605898899098331,0
421,0.016839999999999966,4.99972120164681,0.0014516858662357995,0.00035344826017822155,0
422,0.016880000000000006,5.000378781950543,-0.0008498429307955274,-0.0019478359131719085,0
423,0.016920000000000046,5.000049991798719,-0.002165002240582567,-0.003262744678639237,0
424,0.016960000000000086,5.000378781950543,-0.0018362124133269458,-0.0029336983823964645,0
425,0.016999999999999904,5.000378781950543,-0.0018362124133269458,-0.0029334359847382283,0
426,0.017039999999999944,4.99972120164681,-0.0008498429307955274,-0.001946798171899169,0
427,0.017079999999999984,5.000049991798719,-0.0008498429307955274,-0.0019465239049891573,0
428,0.017120000000000024,5.000049991798719,-0.0018362124133269458,-0.0029326131800806246,0
429,0.017160000000000064,5.000378781950543,-0.002165002240582567,-0.003261116855464219,0
430,0.017200000000000104,5.000049991798719,-0.0008498429307955274,-0.0019456654454964135,0
431,0.017239999999999922,5.000049991798719,0.0027668451816259126,0.0016713207192656883,0
432,0.017279999999999962,5.000049991798719,-0.003808951374948702,-0.0049041718289827545,0
433,0.017320000000000002,5.000378781950543,0.00013652655288240445,-0.0009583839330399639,0
434,0.017360000000000042,5.000707572102282,0.00013652655288240445,-0.0009580680013683792,0
435,0.017400000000000082,5.000378781950543,-0.0018362124133269458,-0.0029304850685975374,0
436,0.0174399999999999,4.99972120164681,-0.0015074225859438989,-0.002601367371202698,0
437,0.01747999999999994,5.000378781950543,-0.0008498429307955274,-0.0019434538713136865,0
438,0.01751999999999998,4.99972120164681,-0.0005210531030302584,-0.0016143242204074769,0
439,0.01756000000000002,5.000049991798719,-0.001178632758433426,-0.0022715580706237854,0
440,0.01760000000000006,5.000378781950543,-0.0005210531030302584,-0.001613626624368095,0
441,0.0176400000000001,4.99972120164681,0.0014516858662357995,0.00035947012500998714,0
442,0.017679999999999918,4.99972120164681,-0.004466531027802631,-0.005558382996089024,0
443,0.017719999999999958,5.000049991798719,0.0004653163810297567,-0.0006261658179479367,0
444,0.017759999999999998,5.000378781950543,0.001780475694892425,0.0006893692651085965,0
445,0.017800000000000038,4.999392411494816,-0.0018362124133269458,-0.0029269370705419296,0
446,0.017840000000000078,5.000049991798719,-0.0008498429307955274,-0.0019401798086029834,0
447,0.017879999999999896,5.001036362253937,-0.005124110680146385,-0.006214053768270055,0
448,0.017919999999999936,5.000378781950543,-0.0028225818947114484,-0.003912125179463693,0
449,0.017959999999999976,5.000378781950543,-0.0031513717215847087,-0.004240509185892702,0
450,0.018000000000000016,5.001036362253937,-0.0018362124133269458,-0.00292493803675894,0
451,0.018040000000000056,5.000049991798719,-0.0008498429307955274,-0.0019381506895871361,0
452,0.018080000000000096,5.000378781950543,-0.002165002240582567,-0.003252886107663089,0
453,0.018119999999999914,4.999392411494816,-0.0024937920677107622,-0.0035812460127295433,0
454,0.018159999999999954,5.000378781950543,-0.002165002240582567,-0.003252020229935401,0
455,0.018199999999999994,5.000049991798719,-0.00019226327513760522,-0.001278839271993176,0
456,0.018240000000000034,5.000049991798719,-0.0018362124133269458,-0.002922340377653291,0
457,0.018280000000000074,5.001036362253937,-0.0018362124133269458,-0.0029218863019179683,0
458,0.018320000000000114,5.000049991798719,-0.002165002240582567,-0.0032502160070845727,0
459,0.018359999999999932,4.99972120164681,-0.0024937920677107622,-0.003578539662649041,0
460,0.018399999999999972,5.000049991798719,-0.003808951374948702,-0.0048932267457541465,0
461,0.018440000000000012,5.000049991798719,-0.003808951374948702,-0.004892748465984473,0
462,0.018480000000000052,5.000378781950543,-0.005124110680146385,-0.006207423432734606,0
463,0.018520000000000092,5.000049991798719,-0.0024937920677107622,-0.003576614420159259,0
464,0.01855999999999991,5.000049991798719,-0.004466531027802631,-0.005548856915431687,0
465,0.01859999999999995,5.000378781950543,-0.0031513717215847087,-0.004233195076753881,0
466,0.01863999999999999,5.000049991798719,-0.00019226327513760522,-0.0012735780272725595,0
467,0.01868000000000003,5.000707572102282,-0.003808951374948702,-0.004889751450568079,0
468,0.01872000000000007,5.000049991798719,-0.0008498429307955274,-0.0019301222535378633,0
469,0.01876000000000011,5.000049991798719,-0.004137741201439435,-0.005217493692090086,0
470,0.018799999999999928,5.002351522859708,-0.002165002240582567,-0.0032442218171006973,0
471,0.018839999999999968,5.000049991798719,-0.0005210531030302584,-0.0015997336805758464,0
472,0.018880000000000008,4.99972120164681,0.00013652655288240445,-0.0009416089380784899,0
473,0.018920000000000048,5.000378781950543,-0.004466531027802631,-0.005544115341821646,0
474,0.018960000000000088,4.99972120164681,-0.003808951374948702,-0.004885978418950766,0
475,0.018999999999999906,4.999063621342738,-0.002165002240582567,-0.003241465918801879,0
476,0.019039999999999946,4.99972120164681,-0.001178632758433426,-0.0022545269724406733,0
477,0.019079999999999986,5.000049991798719,-0.0008498429307955274,-0.001925161579525122,0
478,0.019120000000000026,5.000049991798719,-0.0018362124133269458,-0.0029109493931043,0
479,0.019160000000000066,5.000707572102282,0.0014516858662357995,0.00037753666166696204,0
480,0.019200000000000106,5.000378781950543,-0.00348016154833046,-0.004553716868880146,0
481,0.019239999999999924,5.000049991798719,0.0004653163810297567,-0.0006076389441631762,0
482,0.019279999999999964,5.000049991798719,-0.002165002240582567,-0.0032373514565815576,0
483,0.019320000000000004,4.99972120164681,-0.002165002240582567,-0.0032367392310782965,0
484,0.019360000000000044,5.000707572102282,-0.00348016154833046,-0.004551280194568948,0
485,0.019400000000000084,5.000378781950543,-0.00348016154833046,-0.004550655729140583,0
486,0.019439999999999902,5.000049991798719,-0.0008498429307955274,-0.0019197065226165544,0
487,0.019479999999999942,5.000049991798719,0.0007941062093044515,-0.0002751206676047152,0
488,0.019519999999999982,5.000378781950543,-0.0018362124133269458,-0.002904796447067077,0
489,0.019560000000000022,4.99972120164681,-0.001178632758433426,-0.0022465678184405997,0
490,0.019600000000000062,5.000707572102282,-0.00348016154833046,-0.004547441501761691,0
491,0.019640000000000102,5.000378781950543,0.00013652655288240445,-0.0009300921588785704,0
492,0.01967999999999992,5.000378781950543,-0.0005210531030302584,-0.0015870044358030743,0
493,0.01971999999999996,5.000378781950543,-0.006768059808773,-0.007833337623043977,0
494,0.01976,5.001036362253937,-0.004137741201439435,-0.005202339355526966,0
495,0.01980000000000004,5.000378781950543,0.0027668451816259126,0.0017029328315435145,0
496,0.01984000000000008,5.000378781950543,-0.0024937920677107622,-0.0035570124678541517,0
497,0.019879999999999898,5.001365152405508,-0.004466531027802631,-0.005529053329988913,0
498,0.019919999999999938,5.000049991798719,-0.00019226327513760522,-0.00125408132929243,0
499,0.019959999999999978,4.99972120164681,0.0024380553525874815,0.0013769476985667109,0
500,0.020000000000000018,4.999063621342738,-0.001178632758433426,-0.0022390238582173476,0
501,0.020040000000000058,5.000707572102282,-0.0047953208540382625,-0.005854989243510424,0
502,0.020080000000000098,5.000049991798719,-0.0005210531030302584,-0.0015799926241717413,0
503,0.020119999999999916,5.000378781950543,-0.001178632758433426,-0.002236837251309429,0
504,0.020159999999999956,4.99972120164681,-0.005124110680146385,-0.0061815739829344084,0
505,0.020199999999999996,5.000049991798719,-0.004466531027802631,-0.005523246976820684,0
506,0.020240000000000036,5.000049991798719,-0.0008498429307955274,-0.0019058053605303616,0
507,0.020280000000000076,4.99972120164681,0.0007941062093044515,-0.00026109653383092277,0
508,0.020319999999999894,5.000378781950543,-0.001178632758433426,-0.0022330696458784196,0
509,0.020359999999999934,4.999063621342738,-0.0015074225859438989,-0.002561087446861262,0
510,0.020399999999999974,5.000378781950543,-0.002165002240582567,-0.0032178889024170932,0
511,0.020440000000000014,5.000049991798719,-0.001178632758433426,-0.0022307350469403632,0
512,0.020480000000000054,4.99972120164681,-0.002165002240582567,-0.0032163139798560597,0
513,0.020520000000000094,5.000049991798719,-0.0028225818947114484,-0.003873096907213024,0
514,0.02055999999999991,4.99972120164681,-0.002165002240582567,-0.0032147143471696494,0
515,0.02059999999999995,5.000049991798719,-0.0015074225859438989,-0.0025563256058983653,0
516,0.02063999999999999,5.000049991798719,-0.0008498429307955274,-0.0018979306818523015,0
517,0.02068000000000003,5.000049991798719,-0.002165002240582567,-0.0032122685389582455,0
518,0.02072000000000007,5.000049991798719,-0.0018362124133269458,-0.002882651073748465,0
519,0.02076000000000011,4.999392411494816,-0.0018362124133269458,-0.0028818172490602694,0
520,0.02079999999999993,5.000378781950543,-0.005124110680146385,-0.006168875503025233,0
521,0.02083999999999997,5.000049991798719,-0.001178632758433426,-0.002222551378888051,0
522,0.02088000000000001,5.000378781950543,-0.0018362124133269458,-0.002879278640412903,0
523,0.02092000000000005,5.000049991798719,-0.0005210531030302584,-0.0015632607444572397,0
524,0.02096000000000009,4.99972120164681,-0.00019226327513760522,-0.001233606137298276,0
525,0.020999999999999908,5.000378781950543,-0.001178632758433426,-0.0022191046464323026,0
526,0.021039999999999948,4.99972120164681,-0.007754429284417372,-0.008794024002099728,0
527,0.021079999999999988,5.000049991798719,-0.005781690331979852,-0.006820401681960666,0
528,0.021120000000000028,5.000707572102282,-0.002165002240582567,-0.0032028240242754752,0
529,0.021160000000000068,5.000049991798719,-0.00019226327513760522,-0.0012291892927839092,0
530,0.021200000000000108,5.000378781950543,0.0004653163810297567,-0.0005707076696679489,0
531,0.021239999999999926,5.000378781950543,-0.0024937920677107622,-0.003528907949443653,0
532,0.021279999999999966,5.000049991798719,-0.00019226327513760522,-0.001226464784804355,0
533,0.021320000000000006,5.000049991798719,-0.0024937920677107622,-0.0035270730011540546,0
534,0.021360000000000046,5.001036362253937,-0.006110480157705198,-0.007142834309740904,0
535,0.021400000000000086,5.000378781950543,-0.00348016154833046,-0.00451158271277684,0
536,0.021439999999999904,5.000049991798719,-0.001178632758433426,-0.0022091147281403456,0
537,0.021479999999999944,5.000707572102282,-0.001178632758433426,-0.00220816932531161,0
538,0.021519999999999984,5.000049991798719,-0.006110480157705198,-0.007139065112755526,0
539,0.021560000000000024,5.000049991798719,-0.003808951374948702,-0.004836578508291546,0
540,0.021600000000000064,5.000378781950543,-0.0031513717215847087,-0.004178034822489268,0
541,0.021640000000000104,5.000049991798719,-0.003808951374948702,-0.0048346442318624,0
542,0.02167999999999992,5.000707572102282,-0.005781690331979852,-0.006806406732557757,0
543,0.02171999999999996,5.000378781950543,-0.0047953208540382625,-0.0058190545851725325,0
544,0.02176,5.000707572102282,-0.0008498429307955274,-0.0018725877786448933,0
545,0.02180000000000004,5.000378781950543,-0.0008498429307955274,-0.0018715926808148065,0
546,0.02184000000000008,5.000049991798719,-0.002165002240582567,-0.0031857506775522294,0
547,0.0218799999999999,5.000049991798719,-0.00348016154833046,-0.004499902456386224,0
548,0.02191999999999994,5.000049991798719,-0.007096849634115457,-0.008115576796777914,0
549,0.02195999999999998,5.000378781950543,-0.003808951374948702,-0.004826658575152979,0
550,0.02200000000000002,4.99972120164681,-0.00808321910937683,-0.009099900129502264,0
551,0.02204000000000006,4.99972120164681,-0.0018362124133269458,-0.0028518610352268195,0
552,0.0220800000000001,5.000049991798719,-0.002165002240582567,-0.003179612245613816,0
553,0.022119999999999918,5.000378781950543,-0.002165002240582567,-0.003178567409635574,0
554,0.022159999999999958,5.000049991798719,-0.002165002240582567,-0.0031775163541109606,0
555,0.022199999999999998,5.000049991798719,-0.006768059808773,-0.0077795166468234795,0
556,0.022240000000000038,5.000378781950543,-0.001178632758433426,-0.002189026100675631,0
557,0.022280000000000078,5.000378781950543,-0.0005210531030302584,-0.001530376728786637,0
558,0.022319999999999895,5.000707572102282,-0.0024937920677107622,-0.003502039755986511,0
559,0.022359999999999935,4.999392411494816,-0.002165002240582567,-0.003172167770095594,0
560,0.022399999999999975,4.999063621342738,-0.002165002240582567,-0.003171079389793481,0
561,0.022440000000000015,5.001693942556992,-0.003808951374948702,-0.004813933922090837,0
562,0.022480000000000055,5.000707572102282,-0.0018362124133269458,-0.0028400941364364165,0
563,0.022520000000000095,4.998734831190575,-0.003808951374948702,-0.004811726051894472,0
564,0.022559999999999913,5.002022732708393,-0.004466531027802631,-0.005468192436316623,0
565,0.022599999999999953,4.998077250885994,-0.0015074225859438989,-0.002507964503651118,0
566,0.022639999999999993,5.002680313010939,-0.004466531027802631,-0.0054659472322513055,0
567,0.022680000000000033,4.99972120164681,-0.0018362124133269458,-0.0028344966820187277,0
568,0.022720000000000073,5.000707572102282,0.001780475694892425,0.0007833295844722607,0
569,0.022760000000000113,5.000707572102282,-0.0031513717215847087,-0.0041473734512324,0
570,0.02279999999999993,5.001036362253937,-0.005781690331979852,-0.006776541458398374,0
571,0.02283999999999997,5.000378781950543,-0.002165002240582567,-0.003158696541389675,0
572,0.02288000000000001,4.99972120164681,-0.005124110680146385,-0.006116641933064605,0
573,0.02292000000000005,5.000378781950543,-0.006110480157705198,-0.007101842140592189,0
574,0.02296000000000009,5.000378781950543,-0.0047953208540382625,-0.005785507344917188,0
575,0.02299999999999991,5.000049991798719,-0.0031513717215847087,-0.00414037649867463,0
576,0.02303999999999995,5.000049991798719,-0.0005210531030302584,-0.0015088699447765438,0
577,0.02307999999999999,5.000049991798719,-0.0031513717215847087,-0.0041379944066894684,0
578,0.02312000000000003,4.999063621342738,-0.0024937920677107622,-0.0034792143751633158,0
579,0.02316000000000007,5.000378781950543,-0.004466531027802631,-0.0054507467369099855,0
580,0.02320000000000011,5.000378781950543,-0.006439269983302923,-0.007422272873720289,0
581,0.023239999999999927,5.000049991798719,-0.0005210531030302584,-0.0015028369547915796,0
582,0.023279999999999967,4.99972120164681,-0.0047953208540382625,-0.005775879447586752,0
583,0.023320000000000007,4.999392411494816,-0.004466531027802631,-0.005445858144021379,0
584,0.023360000000000047,5.000378781950543,-0.004137741201439435,-0.005115830621682005,0
585,0.023400000000000087,5.000049991798719,-0.004466531027802631,-0.0054433765339236915,0
586,0.023439999999999905,4.999392411494816,-0.0018362124133269458,-0.0028118077877129265,0
587,0.023479999999999945,5.000049991798719,-0.007754429284417372,-0.00872876831001713,0
588,0.023519999999999985,5.000049991798719,-0.0024937920677107622,-0.0034668685280663004,0
589,0.023560000000000025,5.000049991798719,-0.0015074225859438989,-0.0024792302652210728,0
590,0.023600000000000065,4.99972120164681,-0.0047953208540382625,-0.0057658535370575465,0
591,0.023640000000000105,4.99972120164681,-0.0015074225859438989,-0.002476674058211175,0
592,0.023679999999999923,5.000049991798719,-0.004466531027802631,-0.00543449507553998,0
593,0.023719999999999963,5.000378781950543,-0.007754429284417372,-0.008721099694593918,0
594,0.023760000000000003,5.000049991798719,-0.005452900506126915,-0.006418271066489676,0
595,0.023800000000000043,4.99972120164681,0.001780475694892425,0.0008164111957876643,0
596,0.023840000000000083,5.000378781950543,0.0007941062093044515,-0.0001686460179377621,0
597,0.0238799999999999,4.99972120164681,-0.005781690331979852,-0.006743124077625605,0
598,0.02391999999999994,5.000049991798719,-0.00808321910937683,-0.00904332816459382,0
599,0.02395999999999998,4.99972120164681,-0.004466531027802631,-0.005425309184691166,0
600,0.02400000000000002,5.001036362253937,-0.005124110680146385,-0.006081551731770391,0
601,0.02404000000000006,4.999063621342738,-0.006439269983302923,-0.0073953677237209876,0
602,0.0240800000000001,5.000049991798719,-0.001178632758433426,-0.002133380982729849,0
603,0.02411999999999992,5.000049991798719,-0.004466531027802631,-0.005419923532118493,0
604,0.02415999999999996,5.000378781950543,-0.004137741201439435,-0.0050897717830037225,0
605,0.0242,4.999063621342738,-0.004137741201439435,-0.005088403658600162,0
606,0.02424000000000004,5.000707572102282,-0.003808951374948702,-0.004758239507204058,0
607,0.02428000000000008,5.000378781950543,-0.003808951374948702,-0.004756858982978215,0
608,0.024319999999999897,4.99972120164681,-0.007425639459330238,-0.008372160345025961,0
609,0.024359999999999937,4.999392411494816,-0.006439269983302923,-0.00738439794980065,0
610,0.024399999999999977,5.000378781950543,-0.004137741201439435,-0.005081470053149934,0
611,0.024440000000000017,4.99972120164681,-0.0047953208540382625,-0.00573764439667853,0
612,0.024480000000000057,4.99972120164681,-0.004137741201439435,-0.005078653242063989,0
613,0.024520000000000097,4.99972120164681,-0.005452900506126915,-0.006392394853159102,0
614,0.024559999999999915,5.000378781950543,-0.0028225818947114484,-0.003760652357974788,0
615,0.024599999999999955,5.000049991798719,-0.0028225818947114484,-0.003759222285460981,0
616,0.024639999999999995,5.000378781950543,-0.00808321910937683,-0.009018423240330508,0
617,0.024680000000000035,5.000378781950543,-0.004466531027802631,-0.005400292713172734,0
618,0.024720000000000075,5.000049991798719,-0.004466531027802631,-0.00539884408332715,0
619,0.024759999999999893,5.000049991798719,-0.003808951374948702,-0.00473980961792279,0
620,0.024799999999999933,5.001036362253937,-0.0008498429307955274,-0.0017792401801029617,0
621,0.024839999999999973,4.999392411494816,-0.0031513717215847087,-0.004079301797729364,0
622,0.024880000000000013,5.000378781950543,-0.0018362124133269458,-0.002762669138464299,0
623,0.024920000000000053,5.000049991798719,-0.0024937920677107622,-0.0034187692656794024,0
624,0.024960000000000093,4.99972120164681,-0.0024937920677107622,-0.003417283564063932,0
625,0.02499999999999991,5.000049991798719,-0.0018362124133269458,-0.0027582120353641,0
626,0.02503999999999995,5.000378781950543,-0.0008498429307955274,-0.0017703445075939062,0
627,0.02507999999999999,5.000707572102282,-0.00019226327513760522,-0.0011112606375838297,0
628,0.02512000000000003,5.000378781950543,0.00013652655288240445,-0.0007809604279392767,0
629,0.02516000000000007,5.000049991798719,-0.001178632758433426,-0.0020946031922308016,0
630,0.02520000000000011,4.99972120164681,0.00013652655288240445,-0.0007779211703951797,0
631,0.02523999999999993,4.99972120164681,-0.0008498429307955274,-0.0017627617819937738,0
632,0.02527999999999997,5.000049991798719,0.0004653163810297567,-0.0004460674384972312,0
633,0.02532000000000001,5.000049991798719,-0.0008498429307955274,-0.0017596855610586626,0
634,0.02536000000000005,5.000049991798719,-0.00019226327513760522,-0.001100558560575349,0
635,0.02540000000000009,5.000378781950543,0.00013652655288240445,-0.0007702152342311955,0
636,0.025439999999999907,5.000378781950543,0.0004653163810297567,-0.00043986575635548454,0
637,0.025479999999999947,4.99972120164681,0.001122896037706475,0.00021927969932751187,0
638,0.025519999999999987,5.000049991798719,-0.0008498429307955274,-0.001751887323048362,0
639,0.025560000000000027,5.000049991798719,-0.0005210531030302584,-0.0014215194042269804,0
640,0.025600000000000067,5.000707572102282,0.0007941062093044515,-0.00010477585812783928,0
641,0.025640000000000107,5.000378781950543,0.0004653163810297567,-0.00043197531218327253,0
642,0.025679999999999925,5.000049991798719,-0.0005210531030302584,-0.0014167482838545282,0
643,0.025719999999999965,5.000378781950543,-0.0031513717215847087,-0.004045464254167913,0
644,0.025760000000000005,5.000378781950543,0.0007941062093044515,-9.837754153445028e-05,0
645,0.025800000000000045,4.99972120164681,-0.00019226327513760522,-0.001083132113109917,0
646,0.025840000000000085,5.000378781950543,0.00013652655288240445,-0.0007527212435138987,0
647,0.025879999999999903,5.000378781950543,0.0021092655236763236,0.0012216448951206582,0
648,0.025919999999999943,5.000378781950543,-0.0005210531030302584,-0.0014070404399573852,0
649,0.025959999999999983,5.000049991798719,-0.0018362124133269458,-0.0027205603373463235,0
650,0.026000000000000023,5.000049991798719,-0.0024937920677107622,-0.0033764944600838355,0
651,0.026040000000000063,5.000378781950543,-0.0024937920677107622,-0.0033748428122716183,0
652,0.026080000000000103,4.999063621342738,0.001122896037706475,0.00024350305451910446,0
653,0.02611999999999992,5.000378781950543,-0.0024937920677107622,-0.0033715211786000347,0
654,0.02615999999999996,5.000049991798719,-0.0008498429307955274,-0.0017259020611307902,0
655,0.0262,5.000049991798719,-0.0008498429307955274,-0.0017242259750216088,0
656,0.02624000000000004,4.99972120164681,0.001122896037706475,0.0002501951824119301,0
657,0.02628000000000008,4.99972120164681,0.001122896037706475,0.00025188347140092226,0
658,0.0263199999999999,4.999392411494816,-0.002165002240582567,-0.003034320420638679,0
659,0.02635999999999994,4.999063621342738,-0.0005210531030302584,-0.0013886708024056127,0
660,0.02639999999999998,5.000707572102282,-0.0028225818947114484,-0.003688493021835977,0
661,0.02644000000000002,5.000049991798719,-0.0005210531030302584,-0.0013852515692273026,0
662,0.02648000000000006,5.000049991798719,0.0021092655236763236,0.0012467858041578664,0
663,0.0265200000000001,5.000049991798719,-0.001178632758433426,-0.0020393876484799283,0
664,0.026559999999999917,5.000378781950543,0.004739584158527918,0.0038805601777568144,0
665,0.026599999999999957,5.000049991798719,0.00013652655288240445,-0.0007207604418319555,0
666,0.026639999999999997,5.000378781950543,-0.0015074225859438989,-0.0023629665208744974,0
667,0.026680000000000037,5.000049991798719,-0.0015074225859438989,-0.002361217390450256,0
668,0.026720000000000077,4.99972120164681,-0.0015074225859438989,-0.0023594621925043077,0
669,0.026759999999999895,5.000049991798719,0.0030956350107915753,0.0022453566665477896,0
670,0.026799999999999935,4.999392411494816,0.001122896037706475,0.0002743850169666844,0
671,0.026839999999999975,5.000378781950543,0.0004653163810297567,-0.00038142125823427495,0
672,0.026880000000000015,5.000049991798719,0.0014516858662357995,0.0006067276631713881,0
673,0.026920000000000055,4.99972120164681,0.0021092655236763236,0.0012660928082551745,0
674,0.026960000000000095,5.000049991798719,0.00013652655288240445,-0.0007048546267643934,0
675,0.026999999999999913,5.000378781950543,0.0007941062093044515,-4.5477389781825237e-05,0
676,0.027039999999999953,4.99972120164681,0.005397163818512657,0.004559383841395788,0
677,0.027079999999999993,5.000378781950543,0.010000221452637598,0.009164251135489373,0
678,0.027120000000000033,5.000707572102282,0.010000221452637598,0.009166066830015224,0
679,0.027160000000000073,5.000378781950543,0.00506837398845672,0.004236041091442981,0
680,0.027200000000000113,5.000378781950543,0.008685062126061585,0.007854556982232435,0
681,0.02723999999999993,4.999063621342738,0.007369902801517392,0.006541231434909556,0
682,0.02727999999999997,5.000707572102282,0.004082004499051814,0.003255172930130337,0
683,0.02732000000000001,5.000378781950543,0.004739584158527918,0.003914598404153709,0
684,0.02736000000000005,5.001036362253937,0.006712323140007484,0.005889189213404875,0
685,0.02740000000000009,5.000378781950543,0.008027482463535476,0.007206206374259786,0
686,0.02743999999999991,5.000049991798719,0.006383533309443135,0.005564121063348188,0
687,0.02747999999999995,5.000378781950543,0.006054743479005864,0.005237201078211507,0
688,0.02751999999999999,5.000049991798719,0.006712323140007484,0.005896656582867111,0
689,0.02756000000000003,4.99972120164681,0.007041112970698912,0.006227328251766974,0
690,0.02760000000000007,4.99972120164681,0.00506837398845672,0.004256477098456227,0
691,0.02764000000000011,5.000049991798719,0.008027482463535476,0.007217479389325491,0
692,0.027679999999999927,4.99972120164681,0.006383533309443135,0.00557543003398627,0
693,0.027719999999999967,5.000049991798719,0.0030956350107915753,0.0022894375131214794,0
694,0.027760000000000007,5.000378781950543,0.003753214669504526,0.002948928924693356,0
695,0.027800000000000047,5.000378781950543,0.0014516858662357995,0.0006493178453617059,0
696,0.027840000000000087,5.000707572102282,0.003753214669504526,0.002952770339619103,0
697,0.027879999999999905,5.000049991798719,0.006383533309443135,0.005585018633538885,0
698,0.027919999999999945,5.000049991798719,-0.0047953208540382625,-0.005591899917060474,0
699,0.027959999999999985,5.001365152405508,0.003753214669504526,0.0029585771741409876,0
700,0.028000000000000025,5.000378781950543,0.007369902801517392,0.0065772128244324015,0
701,0.028040000000000065,5.000049991798719,0.003753214669504526,0.0029624781571285994,0
702,0.028080000000000105,5.000049991798719,0.00506837398845672,0.004279596882998407,0
703,0.028119999999999923,5.000378781950543,0.006712323140007484,0.005925511379420772,0
704,0.028159999999999963,5.000049991798719,0.004739584158527918,0.003954743676479627,0
705,0.028200000000000003,5.000378781950543,0.004739584158527918,0.003956720884365063,0
706,0.028240000000000043,5.000378781950543,0.00506837398845672,0.004287493847173879,0
707,0.028280000000000083,5.000049991798719,0.0027668451816259126,0.0019879540938325694,0
708,0.0283199999999999,4.99972120164681,0.0030956350107915753,0.002318738892679463,0
709,0.02835999999999994,5.000707572102282,0.003753214669504526,0.0029783194328149593,0
710,0.02839999999999998,4.99972120164681,0.004082004499051814,0.003309116051042997,0
711,0.02844000000000002,5.000378781950543,0.004410794328726292,0.0036399185721406064,0
712,0.02848000000000006,5.001036362253937,0.0027668451816259126,0.001997988014657201,0
713,0.0285200000000001,5.000378781950543,0.0021092655236763236,0.0013424328399371439,0
714,0.02855999999999992,5.000378781950543,0.005397163818512657,0.004632361507001537,0
715,0.02859999999999996,5.000049991798719,0.0004653163810297567,-0.0002974496739015396,0
716,0.02864,5.000049991798719,0.0014516858662357995,0.0006909619475565561,0
717,0.02868000000000004,5.000378781950543,-0.00348016154833046,-0.0042388374557977065,0
718,0.02872000000000008,4.999392411494816,-0.0015074225859438989,-0.0022640446119842807,0
719,0.028759999999999897,5.000378781950543,-0.0028225818947114484,-0.0035771441738879396,0
720,0.028799999999999937,5.000378781950543,-0.0028225818947114484,-0.0035750785663976577,0
721,0.028839999999999977,4.99972120164681,-0.0018362124133269458,-0.002586637621739902,0
722,0.028880000000000017,5.000707572102282,-0.004137741201439435,-0.004886089095672384,0
723,0.028920000000000057,5.000378781950543,-0.004466531027802631,-0.005212795761857848,0
724,0.028960000000000097,5.000049991798719,-0.004137741201439435,-0.004881916934261038,0
725,0.028999999999999915,5.000707572102282,-0.005781690331979852,-0.0065237712274866235,0
726,0.029039999999999955,4.99972120164681,-0.004137741201439435,-0.004877721428557653,0
727,0.029079999999999995,5.000378781950543,-0.006768059808773,-0.007505933541469264,0
728,0.029120000000000035,5.000378781950543,-0.004466531027802631,-0.005202292445116722,0
729,0.029160000000000075,5.000707572102282,-0.0024937920677107622,-0.00322743535378848,0
730,0.029200000000000115,5.000049991798719,-0.003808951374948702,-0.004540470719074725,0
731,0.029239999999999933,5.001365152405508,-0.005124110680146385,-0.005853500276777137,0
732,0.029279999999999973,5.000049991798719,-0.0047953208540382625,-0.005522574902834782,0
733,0.029320000000000013,4.99972120164681,-0.007096849634115457,-0.007821962339976255,0
734,0.029360000000000053,5.001036362253937,-0.0015074225859438989,-0.0022303881590378283,0
735,0.029400000000000093,5.000049991798719,-0.0024937920677107622,-0.0032146047235098833,0
736,0.02943999999999991,4.99972120164681,-0.0015074225859438989,-0.002226076545256385,0
737,0.02947999999999995,5.000049991798719,-0.00019226327513760522,-0.0009087527641406384,0
738,0.02951999999999999,5.000049991798719,0.0007941062093044515,7.978695903177466e-05,0
739,0.02956000000000003,5.000049991798719,-0.003808951374948702,-0.0045210946235049445,0
740,0.02960000000000007,5.000707572102282,-0.0008498429307955274,-0.001559804420117014,0
741,0.02964000000000011,4.99972120164681,-0.00348016154833046,-0.004187935526399532,0
742,0.02967999999999993,5.000378781950543,-0.0015074225859438989,-0.002213003306276499,0
743,0.02971999999999997,5.000049991798719,0.0024380553525874815,0.0017346736309088928,0
744,0.02976000000000001,5.000378781950543,0.0004653163810297567,-0.0002358606066767254,0
745,0.02980000000000005,5.000049991798719,-0.0008498429307955274,-0.0015488094548441946,0
746,0.02984000000000009,5.000049991798719,-0.0015074225859438989,-0.002204172922314358,0
747,0.029879999999999907,4.999392411494816,0.0014516858662357995,0.0007571574358656926,0
748,0.029919999999999947,5.000378781950543,-0.003808951374948702,-0.004501252186727489,0
749,0.029959999999999987,5.000378781950543,-0.003808951374948702,-0.004499018861309331,0
750,0.030000000000000027,5.000378781950543,0.003424424840084442,0.0027365963801717543,0
751,0.030040000000000067,5.000378781950543,0.0021092655236763236,0.0014236817854113779,0
752,0.030080000000000107,5.000049991798719,0.0024380553525874815,0.0017547220253071264,0
753,0.030119999999999925,4.99972120164681,0.001122896037706475,0.0004418188048516641,0
754,0.030159999999999965,5.000707572102282,0.0024380553525874815,0.0017592398916703202,0
755,0.030200000000000005,5.000378781950543,-0.0015074225859438989,-0.0021839706033730914,0
756,0.030240000000000045,5.000707572102282,0.00013652655288240445,-0.000537748355503236,0
757,0.030280000000000085,5.000378781950543,-0.0005210531030302584,-0.0011930492428444263,0
758,0.030319999999999903,5.000049991798719,-0.0005210531030302584,-0.0011907648208056415,0
759,0.030359999999999943,5.000049991798719,0.001780475694892425,0.0011130540465295936,0
760,0.030399999999999983,4.99972120164681,-0.0005210531030302584,-0.0011861790407332467,0
761,0.030440000000000023,4.99972120164681,0.00013652655288240445,-0.0005262980390728701,0
762,0.030480000000000063,4.99972120164681,0.0021092655236763236,0.0014487479063642894,0
763,0.030520000000000103,5.000049991798719,-0.00348016154833046,-0.004138366568328996,0
764,0.03055999999999992,4.999063621342738,-0.004466531027802631,-0.005122417834075624,0
765,0.03059999999999996,4.99972120164681,-0.0005210531030302584,-0.0011746160854567917,0
766,0.03064,5.000049991798719,0.001122896037706475,0.0004716624829232707,0
767,0.03068000000000004,5.000378781950543,0.0004653163810297567,-0.00018358214867023439,0
768,0.03072000000000008,5.001036362253937,0.0021092655236763236,0.001462707610109506,0
769,0.0307599999999999,4.99972120164681,0.0004653163810297567,-0.00017889533177676891,0
770,0.03079999999999994,4.999063621342738,-0.0018362124133269458,-0.002478072347201835,0
771,0.03083999999999998,5.000378781950543,-0.0024937920677107622,-0.0031332946509713654,0
772,0.03088000000000002,4.999063621342738,-0.00348016154833046,-0.0041173012158157345,0
773,0.03092000000000006,4.998734831190575,0.005397163818512657,0.00476239262540923,0
774,0.0309600000000001,5.003009103162085,0.0007941062093044515,0.00016170904260198347,0
775,0.030999999999999917,4.999063621342738,-0.001178632758433426,-0.0018086503533361821,0
776,0.031039999999999957,5.000378781950543,0.00013652655288240445,-0.0004911059314751456,0
777,0.031079999999999997,4.998734831190575,-0.001178632758433426,-0.0018038746001864355,0
778,0.031120000000000037,5.000707572102282,-0.006439269983302923,-0.007062115657111123,0
779,0.031160000000000077,4.995775719817295,-0.0031513717215847087,-0.0037718157088598046,0
780,0.031199999999999894,4.998734831190575,0.004410794328726292,0.00379275753978775,0
781,0.031239999999999934,5.001036362253937,0.004082004499051814,0.003466380413435557,0
782,0.031279999999999974,4.99972120164681,0.0007941062093044515,0.0001809003251455974,0
783,0.031320000000000014,4.999392411494816,-0.0005210531030302584,-0.0011318352944800797,0
784,0.031360000000000054,5.000378781950543,-0.0018362124133269458,-0.002444565427732452,0
785,0.031400000000000095,4.99972120164681,0.0004653163810297567,-0.00014060197894536115,0
786,0.03143999999999991,5.000378781950543,0.0014516858662357995,0.0008482076310950882,0
787,0.03147999999999995,4.99972120164681,0.004082004499051814,0.003480971852134619,0
788,0.03151999999999999,4.99972120164681,0.006383533309443135,0.005784951707090818,0
789,0.03156000000000003,4.999392411494816,0.003753214669504526,0.0031570895609778693,0
790,0.03160000000000007,5.000049991798719,0.0007941062093044515,0.00020044303675081443,0
791,0.03164000000000011,5.000378781950543,0.004082004499051814,0.0034908086974723097,0
792,0.03167999999999993,4.998734831190575,-0.001178632758433426,-0.0017673557612167294,0
793,0.03171999999999997,4.99972120164681,0.003424424840084442,0.0028381800567075415,0
794,0.03176000000000001,5.000707572102282,0.006712323140007484,0.006128561989402544,0
795,0.03180000000000005,4.999392411494816,0.00506837398845672,0.004487101876711864,0
796,0.03184000000000009,5.000378781950543,0.00506837398845672,0.004489596314349846,0
797,0.03187999999999991,5.000707572102282,0.007041112970698912,0.0064648351256649216,0
798,0.03191999999999995,5.000378781950543,0.003753214669504526,0.0031794420376025784,0
799,0.03195999999999999,5.000378781950543,0.004739584158527918,0.004168322116408671,0
800,0.03200000000000003,4.999063621342738,0.003424424840084442,0.0028556787569573314,0
801,0.03204000000000007,4.99972120164681,0.004082004499051814,0.0035157797366523235,0
802,0.03208000000000011,5.000707572102282,0.007369902801517392,0.006806204714074339,0
803,0.032119999999999926,4.99972120164681,0.00506837398845672,0.004507207922659549,0
804,0.032159999999999966,5.000378781950543,0.008685062126061585,0.008126433421027628,0
805,0.032200000000000006,5.000049991798719,0.008027482463535476,0.0074713964507772505,0
806,0.032240000000000046,5.000049991798719,0.003424424840084442,0.002870886843476951,0
807,0.032280000000000086,5.001036362253937,0.006054743479005864,0.00550375881475391,0
808,0.032319999999999904,5.000049991798719,0.0027668451816259126,0.002218419158231454,0
809,0.032359999999999944,4.99972120164681,0.0076986926324629085,0.007152830550692383,0
810,0.032399999999999984,5.000049991798719,0.0076986926324629085,0.007155399785314601,0
811,0.032440000000000024,5.000378781950543,0.004739584158527918,0.004198865831199301,0
812,0.032480000000000064,5.000049991798719,0.0021092655236763236,0.001571126993531415,0
813,0.032520000000000104,5.000049991798719,0.006712323140007484,0.006176769676544217,0
814,0.03255999999999992,5.000707572102282,0.005397163818512657,0.004864200683330273,0
815,0.03259999999999996,5.000049991798719,0.003424424840084442,0.002894057286850858,0
816,0.03264,5.000049991798719,0.008356272294735026,0.007828505569154228,0
817,0.03268000000000004,4.99972120164681,0.004739584158527918,0.004214423498307377,0
818,0.03272000000000008,5.000378781950543,0.007369902801517392,0.006847353436335474,0
819,0.0327599999999999,5.000049991798719,0.006712323140007484,0.006192390291480935,0
820,0.03279999999999994,5.000378781950543,0.003424424840084442,0.0029071137217358467,0
821,0.03283999999999998,4.999392411494816,0.007369902801517392,0.006855218618742676,0
822,0.03288000000000002,4.99972120164681,0.005397163818512657,0.004885111768548598,0
823,0.03292000000000006,5.000378781950543,0.009671431620803153,0.00916201689269488,0
824,0.0329600000000001,5.000049991798719,0.008027482463535476,0.007520710238104024,0
825,0.03299999999999992,4.999392411494816,0.008685062126061585,0.008180937575871457,0
826,0.03303999999999996,5.000378781950543,0.006712323140007484,0.006210851429334238,0
827,0.03308,5.000378781950543,0.0030956350107915753,0.0025968212955894405,0
828,0.03312000000000004,5.000707572102282,0.004082004499051814,0.003585853926921313,0
829,0.03316000000000008,5.000378781950543,0.00506837398845672,0.004574891698612328,0
830,0.033199999999999896,4.99972120164681,0.0030956350107915753,0.002604826134029374,0
831,0.033239999999999936,4.99972120164681,0.004739584158527918,0.0042514538171932546,0
832,0.033279999999999976,4.99972120164681,0.007041112970698912,0.006555666278654084,0
833,0.033320000000000016,4.999392411494816,0.004410794328726292,0.003928036391318244,0
834,0.033360000000000056,5.000707572102282,0.003424424840084442,0.002944360754112487,0
835,0.033400000000000096,5.000049991798719,0.005725953648695714,0.005248588502379267,0
836,0.033439999999999914,5.000378781950543,0.0004653163810297567,-9.344746023904108e-06,0
837,0.033479999999999954,4.99972120164681,-0.00019226327513760522,-0.0006642153119655954,0
838,0.033519999999999994,4.999392411494816,-0.0047953208540382625,-0.005264558738354306,0
839,0.033560000000000034,5.000707572102282,0.0007941062093044515,0.00032758753107779714,0
840,0.033600000000000074,5.000378781950543,0.0024380553525874815,0.0019742609252866605,0
841,0.033640000000000114,4.99972120164681,-0.00019226327513760522,-0.0006533284154493379,0
842,0.03367999999999993,5.000049991798719,-0.00019226327513760522,-0.000650594101202351,0
843,0.03371999999999997,5.001036362253937,0.0014516858662357995,0.0009960943728384397,0
844,0.03376000000000001,5.000707572102282,-0.00019226327513760522,-0.0006451104263168091,0
845,0.03380000000000005,5.000049991798719,0.0007941062093044515,0.00034400840099242246,0
846,0.03384000000000009,5.000049991798719,0.001780475694892425,0.0013331322211627447,0
847,0.03387999999999991,5.000378781950543,0.004082004499051814,0.0036374203426537263,0
848,0.03391999999999995,4.99972120164681,0.003424424840084442,0.0029826049747691983,0
849,0.03395999999999999,5.000049991798719,0.0007941062093044515,0.00035505559979325527,0
850,0.03400000000000003,5.000049991798719,0.00506837398845672,0.004632097590408684,0
851,0.03404000000000007,5.000707572102282,0.005397163818512657,0.004963666578492797,0
852,0.03408000000000011,5.000378781950543,0.0007941062093044515,0.0003633930647516743,0
853,0.03411999999999993,5.000049991798719,0.0021092655236763236,0.0016813414028714296,0
854,0.03415999999999997,5.000378781950543,0.001780475694892425,0.001355345516926149,0
855,0.03420000000000001,5.000049991798719,0.004082004499051814,0.0036596731737928655,0
856,0.03424000000000005,5.000378781950543,0.004410794328726292,0.003991266756789431,0
857,0.03428000000000009,4.99972120164681,0.004410794328726292,0.0039940754014404205,0
858,0.034319999999999906,5.000707572102282,0.003424424840084442,0.0030105194394607153,0
859,0.034359999999999946,5.000049991798719,0.0027668451816259126,0.00235575818032587,0
860,0.034399999999999986,5.000049991798719,0.0014516858662357995,0.001043422127539518,0
861,0.034440000000000026,5.001365152405508,0.004739584158527918,0.004334148536302185,0
862,0.034480000000000066,5.000049991798719,0.006712323140007484,0.006309720478674008,0
863,0.034520000000000106,5.000378781950543,0.003753214669504526,0.0033534498040081566,0
864,0.034559999999999924,5.000049991798719,0.001122896037706475,0.0007259737934834348,0
865,0.034599999999999964,5.000707572102282,0.001780475694892425,0.0013864008878385831,0
866,0.034640000000000004,4.99972120164681,-0.0015074225859438989,-0.0018986451495047168,0
867,0.034680000000000044,4.99972120164681,0.0004653163810297567,7.695085768205656e-05,0
868,0.034720000000000084,5.000049991798719,0.0030956350107915753,0.0027101313147417073,0
869,0.0347599999999999,4.99972120164681,0.003424424840084442,0.0030417877487501047,0
870,0.03479999999999994,5.000378781950543,0.003753214669504526,0.003373448950604785,0
871,0.03483999999999998,5.000049991798719,0.0014516858662357995,0.001074796277759492,0
872,0.03488000000000002,5.000049991798719,0.0030956350107915753,0.002721626300965733,0
873,0.03492000000000006,4.99972120164681,0.0030956350107915753,0.0027245119180498868,0
874,0.0349600000000001,5.000049991798719,0.00013652655288240445,-0.00023170619416631013,0
875,0.03499999999999992,5.000049991798719,0.0004653163810297567,9.997869842646144e-05,0
876,0.03503999999999996,5.000049991798719,0.004082004499051814,0.0037195665897585394,0
877,0.03508,5.000049991798719,0.0024380553525874815,0.002078521915549537,0
878,0.03512000000000004,4.999392411494816,0.00013652655288240445,-0.00022009772290563254,0
879,0.03516000000000008,4.99972120164681,-0.0005210531030302584,-0.0008747635385559407,0
880,0.0351999999999999,5.001693942556992,0.003753214669504526,0.003402422743240144,0
881,0.03523999999999994,4.999392411494816,-0.001178632758433426,-0.0015265015164823937,0
882,0.03527999999999998,5.000378781950543,0.003753214669504526,0.0034082737285489207,0
883,0.03532000000000002,4.999063621342738,0.006712323140007484,0.006370314654915764,0
884,0.03536000000000006,4.99972120164681,0.006054743479005864,0.005715672078409864,0
885,0.0354000000000001,4.99972120164681,0.0027668451816259126,0.002430715483987531,0
886,0.035439999999999916,4.997748460733576,0.001780475694892425,0.0014472923084724145,0
887,0.035479999999999956,4.99972120164681,0.004082004499051814,0.0037517720218786005,0
888,0.035519999999999996,5.000378781950543,0.0027668451816259126,0.002439568201464441,0
889,0.035560000000000036,5.000049991798719,0.0004653163810297567,0.00014099947535034974,0
890,0.035600000000000076,5.000049991798719,0.003753214669504526,0.0034318624054517797,0
891,0.035639999999999894,5.000378781950543,0.006054743479005864,0.005736360413367582,0
892,0.035679999999999934,5.000378781950543,0.0014516858662357995,0.0011362765454119466,0
893,0.035719999999999974,5.000378781950543,0.003753214669504526,0.003440783629476197,0
894,0.035760000000000014,5.000049991798719,0.005397163818512657,0.005087715584811109,0
895,0.035800000000000054,4.999063621342738,0.004739584158527918,0.00443312324620361,0
896,0.035840000000000094,4.99972120164681,0.0004653163810297567,0.00016184729462143175,0
897,0.03587999999999991,4.99972120164681,0.0024380553525874815,0.0021375825860912648,0
898,0.03591999999999995,5.000378781950543,0.003753214669504526,0.0034557427063430764,0
899,0.03595999999999999,5.000049991798719,0.0027668451816259126,0.0024723784946175846,0
900,0.03600000000000003,5.000378781950543,0.0030956350107915753,0.0028041780621196064,0
901,0.03604000000000007,5.000378781950543,0.001780475694892425,0.0014920329360741712,0
902,0.03608000000000011,5.000049991798719,0.0027668451816259126,0.002481421053482106,0
903,0.03611999999999993,4.99972120164681,-0.001178632758433426,-0.0014610338258093805,0
904,0.03615999999999997,5.000049991798719,0.001780475694892425,0.001501102107619709,0
905,0.03620000000000001,5.000378781950543,0.005397163818512657,0.005120822119889914,0
906,0.03624000000000005,4.99972120164681,-0.00019226327513760522,-0.00046556868738290794,0
907,0.03628000000000009,5.000049991798719,0.004082004499051814,0.0038117397600615486,0
908,0.03631999999999991,4.99972120164681,0.004739584158527918,0.004472364468789881,0
909,0.03635999999999995,4.99972120164681,0.005397163818512657,0.005132993543113095,0
910,0.03639999999999999,5.000049991798719,0.00013652655288240445,-0.000124589954033886,0
911,0.03644000000000003,4.999392411494816,0.003753214669504526,0.0034951562742443635,0
912,0.03648000000000007,5.000707572102282,0.007041112970698912,0.006786117019265366,0
913,0.03652000000000011,5.000049991798719,0.0024380553525874815,0.0021861261661182507,0
914,0.036559999999999926,4.999392411494816,0.004410794328726292,0.0041619362172958954,0
915,0.036599999999999966,5.000049991798719,0.007369902801517392,0.007124120064106837,0
916,0.036640000000000006,5.000378781950543,0.003424424840084442,0.003181721764550911,0
917,0.036680000000000046,5.001365152405508,0.0007941062093044515,0.000554487072350993,0
918,0.036720000000000086,5.000049991798719,0.003424424840084442,0.003187893907229727,0
919,0.036759999999999904,5.000049991798719,0.003753214669504526,0.003519776195052656,0
920,0.036799999999999944,5.000049991798719,0.003753214669504526,0.003522872896514854,0
921,0.036839999999999984,5.000707572102282,0.004410794328726292,0.0041835534889832875,0
922,0.036880000000000024,5.000378781950543,0.003424424840084442,0.0032002891540675914,0
923,0.036920000000000064,4.99972120164681,0.003753214669504526,0.0035321883463582575,0
924,0.036960000000000104,5.000378781950543,-0.001178632758433426,-0.0013965455209297727,0
925,0.03699999999999992,4.99972120164681,0.0007941062093044515,0.0005793111938422674,0
926,0.03703999999999996,5.000049991798719,0.003424424840084442,0.003212751746615618,0
927,0.03708,4.999392411494816,0.006054743479005864,0.005846196471034631,0
928,0.03712000000000004,4.999392411494816,0.004739584158527918,0.004534167388073649,0
929,0.03716000000000008,5.000707572102282,0.0014516858662357995,0.0012494034738031476,0
930,0.0371999999999999,4.999392411494816,0.001780475694892425,0.001581331809441492,0
931,0.03723999999999994,4.998734831190575,0.0024380553525874815,0.002242054091504037,0
932,0.03727999999999998,4.998734831190575,0.005397163818512657,0.00520430928757838,0
933,0.03732000000000002,5.000707572102282,-0.0018362124133269458,-0.0020259161199641714,0
934,0.03736000000000006,4.999392411494816,0.003424424840084442,0.0032378760402286605,0
935,0.0374000000000001,5.001036362253937,0.004410794328726292,0.004227404506443248,0
936,0.03743999999999992,5.000378781950543,0.005397163818512657,0.0052169370328709365,0
937,0.03747999999999996,5.000707572102282,0.001122896037706475,0.0009458363360224081,0
938,0.03752,4.99972120164681,0.0014516858662357995,0.0012777972840439214,0
939,0.03756000000000004,4.99972120164681,0.0027668451816259126,0.002596131742649478,0
940,0.03760000000000008,4.999063621342738,0.00506837398845672,0.0049008397045782436,0
941,0.037639999999999896,4.999392411494816,-0.001178632758433426,-0.0013429838872015903,0
942,0.037679999999999936,4.99972120164681,0.006712323140007484,0.00655115915446242,0
943,0.037719999999999976,4.99972120164681,0.004739584158527918,0.004581611292389869,0
944,0.037760000000000016,5.000049991798719,0.005725953648695714,0.005571175866190382,0
945,0.037800000000000056,5.000378781950543,0.003424424840084442,0.0032728460934500565,0
946,0.037840000000000096,5.000049991798719,0.00013652655288240445,-1.1849217659502809e-05,0
947,0.037879999999999914,4.99972120164681,-0.0008498429307955274,-0.0009950117970693065,0
948,0.037919999999999954,5.000378781950543,0.006054743479005864,0.005912785433100856,0
949,0.037959999999999994,5.000378781950543,0.007369902801517392,0.0072311594799777095,0
950,0.038000000000000034,5.000378781950543,0.0076986926324629085,0.007563167927151961,0
951,0.038040000000000074,4.99972120164681,0.007041112970698912,0.006908810761317961,0
952,0.038080000000000114,5.000049991798719,0.001122896037706475,0.0009938201917656672,0
953,0.03811999999999993,4.999392411494816,0.001780475694892425,0.001654630067681854,0
954,0.03815999999999997,4.999392411494816,0.00013652655288240445,1.3914987443243779e-05,0
955,0.03820000000000001,5.000378781950543,-0.0005210531030302584,-0.0006404267759345956,0
956,0.03824000000000005,4.99972120164681,0.0027668451816259126,0.002650713219713261,0
957,0.03828000000000009,4.99972120164681,0.0027668451816259126,0.002653958736826522,0
958,0.03831999999999991,5.000707572102282,0.00506837398845672,0.004958736854528176,0
959,0.03835999999999995,5.000049991798719,0.0027668451816259126,0.002660461139933159,0
960,0.03839999999999999,5.000378781950543,0.003424424840084442,0.003321297659571168,0
961,0.03844000000000003,4.99972120164681,0.005725953648695714,0.005626087085855793,0
962,0.03848000000000007,5.000378781950543,0.003424424840084442,0.003327822638933411,0
963,0.03852000000000011,5.000049991798719,-0.0008498429307955274,-0.0009431770387489397,0
964,0.03855999999999993,5.000378781950543,0.005725953648695714,0.005635891352913418,0
965,0.03859999999999997,5.000049991798719,0.0021092655236763236,0.002022478746475071,0
966,0.03864000000000001,5.000378781950543,0.0030956350107915753,0.003012127445989371,0
967,0.03868000000000005,5.000049991798719,0.006054743479005864,0.005974518807800518,0
968,0.03872000000000009,5.000378781950543,0.0030956350107915753,0.003018696901732462,0
969,0.038759999999999906,5.001036362253937,0.003424424840084442,0.003350776949044292,0
970,0.038799999999999946,5.000049991798719,0.0014516858662357995,0.0013813318363825617,0
971,0.038839999999999986,5.000378781950543,0.003753214669504526,0.0036861581312732554,0
972,0.038880000000000026,5.000378781950543,0.007041112970698912,0.006977357541763725,0
973,0.038920000000000066,4.99972120164681,0.00506837398845672,0.005007923273702776,0
974,0.038960000000000106,5.000707572102282,0.006712323140007484,0.00665518073150302,0
975,0.038999999999999924,4.99972120164681,0.00506837398845672,0.005014543465425151,0
976,0.039039999999999964,5.000378781950543,0.001122896037706475,0.0010723809664985214,0
977,0.039080000000000004,5.000378781950543,0.00506837398845672,0.005021177922522593,0
978,0.039120000000000044,5.001036362253937,0.0021092655236763236,0.002065392003537981,0
979,0.039160000000000084,4.999392411494816,0.0024380553525874815,0.002397507905810901,0
980,0.0391999999999999,4.998406041038327,0.0024380553525874815,0.0024008374937550037,0
981,0.03923999999999994,5.003009103162085,0.0076986926324629085,0.007664807863145617,0
982,0.03927999999999998,5.001036362253937,0.00506837398845672,0.005037825797186877,0
983,0.03932000000000002,5.000049991798719,0.005397163818512657,0.005369955680756164,0
984,0.03936000000000006,5.000378781950543,0.003424424840084442,0.003400560218213387,0
985,0.0394000000000001,5.000378781950543,-0.002165002240582567,-0.0021855198973173423,0
986,0.03943999999999992,4.999392411494816,0.0014516858662357995,0.0014345186107395129,0
987,0.03947999999999996,5.001365152405508,0.006054743479005864,0.006040930047674335,0
988,0.03952,4.999392411494816,0.0030956350107915753,0.003085178813347851,0
989,0.03956000000000004,4.99972120164681,0.0007941062093044515,0.0007870106422411195,0
990,0.03960000000000008,5.000707572102282,0.0014516858662357995,0.0014479543127878217,0
991,0.0396399999999999,5.000049991798719,0.001780475694892425,0.0017801115250100255,0
992,0.03967999999999994,4.99972120164681,0.001122896037706475,0.001125902608028076,0
993,0.03971999999999998,5.000049991798719,0.005397163818512657,0.0054035444723378595,0
994,0.03976000000000002,5.000049991798719,0.005725953648695714,0.0057357117159583465,0
995,0.03980000000000006,5.000378781950543,0.003753214669504526,0.003766353466745729,0
996,0.0398400000000001,5.000378781950543,0.004739584158527918,0.004756106988869286,0
997,0.039879999999999916,5.000049991798719,0.004082004499051814,0.004101914652168608,0
998,0.039919999999999956,5.000049991798719,0.0021092655236763236,0.0021325662757707203,0
999,0.039959999999999996,5.000049991798719,0.00013652655288240445,0.00016322116665680973,0
1000,0.040000000000000036,5.000378781950543,0.003424424840084442,0.003454516564714862,0
1001,0.040040000000000076,5.000378781950543,0.003424424840084442,0.003457916911193922,0
1002,0.040080000000000116,5.000378781950543,0.004082004499051814,0.0041189001386839185,0
1003,0.040119999999999933,4.999392411494816,0.001780475694892425,0.0018207781114847772,0
1004,0.040159999999999973,4.999392411494816,0.0004653163810297567,0.0005090287693876316,0
1005,0.040200000000000014,5.000707572102282,0.001780475694892425,0.0018276012361624027,0
1006,0.040240000000000054,4.99972120164681,-0.0005210531030302584,-0.00047051124138657117,0
1007,0.040280000000000094,5.000378781950543,-0.0018362124133269458,-0.0017822510775591556,0
1008,0.04031999999999991,5.000049991798719,-0.0018362124133269458,-0.001778828463422047,0
1009,0.04035999999999995,4.999392411494816,0.0027668451816259126,0.002827654871917404,0
1010,0.04039999999999999,4.99972120164681,0.006054743479005864,0.006118982022143837,0
1011,0.04044000000000003,5.000049991798719,0.0014516858662357995,0.0015193563608645261,0
1012,0.04048000000000007,5.000049991798719,0.0027668451816259126,0.00283795071254806,0
1013,0.04052000000000011,4.99972120164681,0.0004653163810297567,0.0005398600191804958,0
1014,0.04055999999999993,5.000049991798719,-0.00019226327513760522,-0.00011427847271646557,0
1015,0.04059999999999997,5.000049991798719,0.00013652655288240445,0.00021795556269659693,0
1016,0.04064000000000001,5.000378781950543,0.006054743479005864,0.006139619725390864,0
1017,0.04068000000000005,5.000049991798719,0.004082004499051814,0.004170330997214814,0
1018,0.04072000000000009,5.000049991798719,0.0030956350107915753,0.003187414761943564,0
1019,0.04075999999999991,5.000707572102282,0.0024380553525874815,0.0025332913439176812,0
1020,0.04079999999999995,5.000378781950543,0.0014516858662357995,0.001550381070886145,0
1021,0.04083999999999999,4.99972120164681,0.00013652655288240445,0.0002386839299220833,0
1022,0.04088000000000003,5.000049991798719,-0.001178632758433426,-0.0010730102640333734,0
1023,0.04092000000000007,5.000378781950543,0.003424424840084442,0.0035335153826924095,0
1024,0.04096000000000011,5.000378781950543,0.004739584158527918,0.004852145666042565,0
1025,0.040999999999999925,5.000707572102282,0.006054743479005864,0.006170778853951935,0
1026,0.041039999999999965,5.000378781950543,0.004082004499051814,0.0042015166297548565,0
1027,0.041080000000000005,5.000707572102282,0.004739584158527918,0.004862575919089155,0
1028,0.041120000000000045,5.000049991798719,0.00506837398845672,0.005194848238727997,0
1029,0.041160000000000085,5.000378781950543,0.003753214669504526,0.0038831742550633087,0
1030,0.0411999999999999,4.99972120164681,0.003424424840084442,0.0035578725922088814,0
1031,0.04123999999999994,4.99972120164681,0.004082004499051814,0.004218943234695867,0
1032,0.04127999999999998,5.000049991798719,0.005397163818512657,0.005537596340281278,0
1033,0.04132000000000002,4.99972120164681,0.001780475694892425,0.0019244047910168226,0
1034,0.04136000000000006,5.000378781950543,0.004082004499051814,0.004229432943364748,0
1035,0.0414000000000001,5.000049991798719,0.00013652655288240445,0.00028745710479356886,0
1036,0.04143999999999992,5.000707572102282,0.001122896037706475,0.0012773314421779098,0
1037,0.04147999999999996,4.99972120164681,-0.002165002240582567,-0.002007059253060965,0
1038,0.04152,5.000378781950543,0.0027668451816259126,0.002928298468190981,0
1039,0.04156000000000004,5.000378781950543,0.001122896037706475,0.0012878623247873618,0
1040,0.04160000000000008,4.999392411494816,-0.00348016154833046,-0.0033116795738066763,0
1041,0.0416399999999999,5.000049991798719,0.0007941062093044515,0.000966106543628679,0
1042,0.04167999999999994,5.000707572102282,0.0004653163810297567,0.0006408377329182686,0
1043,0.04171999999999998,5.000378781950543,-0.002165002240582567,-0.001985957227983778,0
1044,0.04176000000000002,4.99972120164681,0.00013652655288240445,0.00031909785469554433,0
1045,0.04180000000000006,4.99972120164681,0.0014516858662357995,0.001637786071101449,0
1046,0.0418400000000001,5.000378781950543,0.001122896037706475,0.0013125277447729286,0
1047,0.04187999999999992,5.000049991798719,-0.0005210531030302584,-0.00032788730932844894,0
1048,0.04191999999999996,5.000049991798719,0.00013652655288240445,0.0003332290029165598,0
1049,0.04196,5.000049991798719,0.0024380553525874815,0.002638297013889672,0
1050,0.04200000000000004,5.000049991798719,0.001780475694892425,0.001984259107613363,0
1051,0.04204000000000008,5.000378781950543,-0.001178632758433426,-0.0009713050689516131,0
1052,0.042079999999999895,4.99972120164681,0.001780475694892425,0.0019913501716451072,0
1053,0.042119999999999935,5.000049991798719,0.0027668451816259126,0.0029812689413038656,0
1054,0.042159999999999975,5.000049991798719,0.0021092655236763236,0.0023272410470549436,0
1055,0.042200000000000015,5.000378781950543,0.004410794328726292,0.004632324081678624,0
1056,0.042240000000000055,4.99972120164681,0.0007941062093044515,0.0010191926427779215,0
1057,0.042280000000000095,5.000707572102282,-0.0008498429307955274,-0.0006211973808023363,0
1058,0.04231999999999991,5.000378781950543,0.0007941062093044515,0.0010263132968439744,0
1059,0.04235999999999995,5.000049991798719,-0.001178632758433426,-0.0009428617273159945,0
1060,0.04239999999999999,5.000049991798719,0.0014516858662357995,0.0016910232319446677,0
1061,0.04244000000000003,5.000049991798719,-0.00019226327513760522,5.064280113525107e-05,0
1062,0.04248000000000007,5.000378781950543,0.0007941062093044515,0.0010405833570499914,0
1063,0.04252000000000011,5.000378781950543,-0.0008498429307955274,-0.0005997923657552542,0
1064,0.04255999999999993,5.000378781950543,0.00013652655288240445,0.0003901528659300767,0
1065,0.04259999999999997,5.000378781950543,-0.001178632758433426,-0.0009214283817977247,0
1066,0.04264000000000001,5.000049991798719,0.001122896037706475,0.001383680778356208,0
1067,0.04268000000000005,5.000049991798719,0.003753214669504526,0.004017582059417166,0
1068,0.04272000000000009,5.000378781950543,0.004082004499051814,0.00434995680827667,0
1069,0.04275999999999991,5.000378781950543,0.0024380553525874815,0.0027095948359519206,0
1070,0.04279999999999995,4.99972120164681,0.0014516858662357995,0.0017268147633229451,0
1071,0.04283999999999999,5.000378781950543,0.0024380553525874815,0.0027167758877139833,0
1072,0.04288000000000003,4.999392411494816,0.0021092655236763236,0.002391579905870204,0
1073,0.04292000000000007,5.000378781950543,-0.00019226327513760522,9.364714784096005e-05,0
1074,0.04296000000000011,5.000707572102282,0.0007941062093044515,0.0010836148514522703,0
1075,0.04299999999999993,5.000707572102282,0.0027668451816259126,0.0030599542059728813,0
1076,0.04303999999999997,5.000049991798719,0.001780475694892425,0.0020771872490919,0
1077,0.04308000000000001,5.000378781950543,0.004410794328726292,0.004711110545033283,0
1078,0.04312000000000005,5.000049991798719,0.0024380553525874815,0.0027419783478369337,0
1079,0.04316000000000009,5.000378781950543,0.003424424840084442,0.003731956715669569,0
1080,0.043199999999999905,5.000049991798719,0.005397163818512657,0.005708306660363373,0
1081,0.043239999999999945,5.000707572102282,0.0007941062093044515,0.0011088620878658625,0
1082,0.043279999999999985,4.99972120164681,0.0030956350107915753,0.0034140059810025282,0
1083,0.043320000000000025,5.000049991798719,0.0027668451816259126,0.003088833282897649,0
1084,0.043360000000000065,4.99972120164681,0.006383533309443135,0.006709140565637995,0
1085,0.043400000000000105,5.000049991798719,0.006383533309443135,0.006712761728853357,0
1086,0.04343999999999992,5.000049991798719,0.003424424840084442,0.0037572764154110093,0
1087,0.04347999999999996,5.000378781950543,0.003424424840084442,0.0037609015484160123,0
1088,0.04352,4.99972120164681,0.0024380553525874815,0.0027781591553793956,0
1089,0.04356000000000004,4.999392411494816,-0.00019226327513760522,0.0001514695679157422,0
1090,0.04360000000000008,5.000378781950543,0.0024380553525874815,0.002785419166028248,0
1091,0.0436399999999999,4.99972120164681,0.003753214669504526,0.004104211367762829,0
1092,0.04367999999999994,5.000049991798719,0.001780475694892425,0.002135107176681814,0
1093,0.04371999999999998,5.000378781950543,0.0021092655236763236,0.0024675336719731556,0
1094,0.04376000000000002,5.000378781950543,0.00013652655288240445,0.0004984332349053165,0
1095,0.04380000000000006,5.001036362253937,0.0004653163810297567,0.000830863448219202,0
1096,0.0438400000000001,5.000378781950543,0.0014516858662357995,0.001820875154233665,0
1097,0.04387999999999992,4.999392411494816,0.0030956350107915753,0.0034684683394208683,0
1098,0.04391999999999996,5.000049991798719,0.004739584158527918,0.005116063331772534,0
1099,0.04396,5.000049991798719,0.0021092655236763236,0.0024893923296608854,0
1100,0.04400000000000004,5.000049991798719,0.0030956350107915753,0.0034794112217613393,0
1101,0.04404000000000008,5.000049991798719,0.0027668451816259126,0.0031542725539267682,0
1102,0.0440799999999999,5.000378781950543,-0.00019226327513760522,0.00019881699892092567,0
1103,0.04411999999999994,5.000049991798719,-0.0015074225859438989,-0.001112687685640274,0
1104,0.04415999999999998,5.000049991798719,0.0004653163810297567,0.0008637076161069597,0
1105,0.04420000000000002,5.000707572102282,0.004082004499051814,0.004484053761452456,0
1106,0.04424000000000006,4.999392411494816,0.001780475694892425,0.002186184661168134,0
1107,0.0442800000000001,5.000049991798719,0.00013652655288240445,0.0005458968835670313,0
1108,0.044319999999999915,5.001036362253937,0.0014516858662357995,0.0018647192058259604,0
1109,0.044359999999999955,4.99972120164681,0.0021092655236763236,0.002525963500612032,0
1110,0.044399999999999995,5.000378781950543,-0.0015074225859438989,-0.0010870583592985277,0
1111,0.044440000000000035,4.99972120164681,0.0014516858662357995,0.001875717938859822,0
1112,0.044480000000000075,4.999392411494816,0.003424424840084442,0.0038521263388418517,0
1113,0.044520000000000115,4.99972120164681,0.0027668451816259126,0.003198217670538137,0
1114,0.04455999999999993,5.000049991798719,0.004410794328726292,0.004845839355662464,0
1115,0.04459999999999997,5.000049991798719,0.0007941062093044515,0.0012328253059625295,0
1116,0.04464000000000001,5.000049991798719,-0.0008498429307955274,-0.00040744824890759455,0
1117,0.04468000000000005,5.000378781950543,0.0024380553525874815,0.0028841271190044814,0
1118,0.04472000000000009,5.000378781950543,0.001122896037706475,0.001572646371724373,0
1119,0.04475999999999991,5.000049991798719,0.001122896037706475,0.001576326406151142,0
1120,0.04479999999999995,5.000049991798719,-0.001178632758433426,-0.0007215209050005621,0
1121,0.04483999999999999,5.000378781950543,0.0030956350107915753,0.0035564297834912075,0
1122,0.04488000000000003,4.99972120164681,0.0007941062093044515,0.0012585853192482593,0
1123,0.04492000000000007,5.000378781950543,0.0004653163810297567,0.000933481229875726,0
1124,0.04496000000000011,4.999392411494816,-0.00348016154833046,-0.003008309575261915,0
1125,0.04499999999999993,4.99972120164681,0.0007941062093044515,0.0012696466755603218,0
1126,0.04503999999999997,5.000049991798719,0.0007941062093044515,0.0012733365213387655,0
1127,0.04508000000000001,5.000049991798719,0.001122896037706475,0.0016058175317187995,0
1128,0.04512000000000005,5.000049991798719,0.0014516858662357995,0.0019382998620163293,0
1129,0.04516000000000009,4.99972120164681,0.00013652655288240445,0.0006268343537942185,0
1130,0.04519999999999991,5.000378781950543,0.001122896037706475,0.0016168989306678682,0
1131,0.04523999999999995,5.000049991798719,-0.0018362124133269458,-0.0013385131578600366,0
1132,0.04527999999999999,5.000049991798719,-0.0005210531030302584,-1.9656231081754266e-05,0
1133,0.04532000000000003,5.000049991798719,-0.00019226327513760522,0.00031283245077131294,0
1134,0.04536000000000007,4.999063621342738,0.00013652655288240445,0.0006453223537159652,0
1135,0.04540000000000011,5.000707572102282,0.0007941062093044515,0.001306603289495049,0
1136,0.045439999999999925,5.000707572102282,0.00013652655288240445,0.0006527261003134413,0
1137,0.045479999999999965,5.000049991798719,0.003424424840084442,0.003944328026073253,0
1138,0.045520000000000005,5.000378781950543,0.0004653163810297567,0.000988924360310629,0
1139,0.045560000000000045,5.001036362253937,-0.001178632758433426,-0.0006513188477261745,0
1140,0.045600000000000085,5.000049991798719,0.0014516858662357995,0.0019827068298869663,0
1141,0.0456399999999999,5.000049991798719,-0.0005210531030302584,1.367601844885465e-05,0
1142,0.04567999999999994,5.000049991798719,0.001780475694892425,0.002318914062433352,0
1143,0.04571999999999998,5.000378781950543,-0.003808951374948702,-0.0032668026897788066,0
1144,0.04576000000000002,4.99972120164681,-0.0008498429307955274,-0.00030398287311271966,0
1145,0.04580000000000006,4.999392411494816,0.0004653163810297567,0.0010148888494098335,0
1146,0.0458400000000001,4.997748460733576,-0.0024937920677107622,-0.0019405061671649544,0
1147,0.04587999999999992,4.999392411494816,-0.00348016154833046,-0.0029231612108825793,0
1148,0.04591999999999996,5.000707572102282,-0.0005210531030302584,3.966265930778782e-05,0
1149,0.04596,4.99972120164681,0.00013652655288240445,0.0007009587113344252,0
1150,0.04600000000000004,5.000707572102282,-0.00019226327513760522,0.0003758862338719567,0
1151,0.04604000000000008,5.000049991798719,-0.0015074225859438989,-0.0009355547887293422,0
1152,0.0460799999999999,4.99972120164681,-0.003808951374948702,-0.003233364368693597,0
1153,0.04611999999999994,4.999392411494816,-0.0008498429307955274,-0.0002705358114919224,0
1154,0.04615999999999998,5.001036362253937,-0.00019226327513760522,0.00039076484437925623,0
1155,0.04620000000000002,5.000707572102282,0.001780475694892425,0.002367225684928587,0
1156,0.04624000000000006,5.000378781950543,0.0007941062093044515,0.0013845789232918263,0
1157,0.0462800000000001,4.99972120164681,-0.001178632758433426,-0.0005844364839523997,0
1158,0.04631999999999992,4.999392411494816,0.0004653163810297567,0.0010632370356421519,0
1159,0.04635999999999996,5.001365152405508,0.0004653163810297567,0.0010669622184913598,0
1160,0.0464,5.001036362253937,-0.004466531027802631,-0.003861159221708937,0
1161,0.04644000000000004,5.000049991798719,-0.004466531027802631,-0.003857432484243927,0
1162,0.04648000000000008,4.999392411494816,-0.0015074225859438989,-0.0008945965530521129,0
1163,0.046519999999999895,4.99972120164681,0.00013652655288240445,0.0007530808099956961,0
1164,0.046559999999999935,5.000049991798719,-0.001178632758433426,-0.0005583495592045703,0
1165,0.046599999999999975,5.000707572102282,0.008027482463535476,0.008651495305764964,0
1166,0.046640000000000015,5.000378781950543,-0.0005210531030302584,0.00010669006606143496,0
1167,0.046680000000000055,5.000049991798719,0.001122896037706475,0.0017543702004839657,0
1168,0.046720000000000095,5.000707572102282,-0.002165002240582567,-0.0015297964343479872,0
1169,0.04675999999999991,5.000049991798719,-0.0028225818947114484,-0.0021836438123150528,0
1170,0.04679999999999995,5.000707572102282,-0.002165002240582567,-0.0015223312664003476,0
1171,0.04683999999999999,4.99972120164681,-0.001178632758433426,-0.000532228293936161,0
1172,0.04688000000000003,5.000049991798719,-0.001178632758433426,-0.0005284942222006411,0
1173,0.04692000000000007,5.000378781950543,-0.003808951374948702,-0.003155078202682556,0
1174,0.04696000000000011,5.000378781950543,-0.0015074225859438989,-0.0008498142304829816,0
1175,0.04699999999999993,5.000378781950543,-0.0024937920677107622,-0.00183244799904378,0
1176,0.04703999999999997,5.000378781950543,-0.001178632758433426,-0.0005135524637128052,0
1177,0.04708000000000001,5.000049991798719,-0.0031513717215847087,-0.002482554705140092,0
1178,0.04712000000000005,5.000049991798719,-0.0005210531030302584,0.000151501113618079,0
1179,0.04716000000000009,5.000378781950543,-0.002165002240582567,-0.0014887103624547284,0
1180,0.04719999999999991,5.000049991798719,-0.0024937920677107622,-0.0018137620840448232,0
1181,0.04723999999999995,4.998734831190575,-0.0031513717215847087,-0.002467603205552382,0
1182,0.04727999999999999,5.001036362253937,-0.001178632758433426,-0.0004911253004497825,0
1183,0.04732000000000003,5.000378781950543,0.0014516858662357995,0.0021429326584993897,0
1184,0.04736000000000007,5.001036362253937,-0.004466531027802631,-0.003771544526199622,0
1185,0.04740000000000011,4.99972120164681,0.001780475694892425,0.0024792022636123743,0
1186,0.04743999999999993,5.001365152405508,-0.00019226327513760522,0.0005102037011822042,0
1187,0.04747999999999997,5.000049991798719,0.0014516858662357995,0.0021578935733311726,0
1188,0.04752000000000001,4.997419670581074,-0.004466531027802631,-0.003756582284075689,0
1189,0.04756000000000005,5.001693942556992,-0.0031513717215847087,-0.0024376816527023155,0
1190,0.04760000000000009,4.999063621342738,-0.0047953208540382625,-0.004077889188820961,0
1191,0.047639999999999905,5.001036362253937,-0.0090695885834889,-0.008348415068113891,0
1192,0.047679999999999945,5.001693942556992,0.0004653163810297567,0.0011902319830164652,0
1193,0.047719999999999985,5.000378781950543,-0.006110480157705198,-0.005381822250033613,0
1194,0.047760000000000025,5.000378781950543,0.0004653163810297567,0.0011977167960666008,0
1195,0.047800000000000065,5.000378781950543,-0.0005210531030302584,0.000215090003647633,0
1196,0.047840000000000105,5.001036362253937,0.0030956350107915753,0.0038355209759699405,0
1197,0.04787999999999992,5.001036362253937,0.001780475694892425,0.002524104668002693,0
1198,0.04791999999999996,5.000049991798719,-0.006110480157705198,-0.005363108044671164,0
1199,0.04796,5.000049991798719,-0.0113711173519455,-0.010620001984446882,0
1200,0.04800000000000004,4.99972120164681,-0.004466531027802631,-0.0037116723087610125,0
1201,0.04804000000000008,4.999392411494816,-0.005452900506126915,-0.004694298355937546,0
1202,0.0480799999999999,5.000049991798719,-0.003808951374948702,-0.003046605731491717,0
1203,0.04811999999999994,4.99972120164681,-0.00348016154833046,-0.002714072366981969,0
1204,0.04815999999999998,4.99972120164681,-0.00348016154833046,-0.002710328801973561,0
1205,0.04820000000000002,5.001365152405508,0.0004653163810297567,0.0012388927019940626,0
1206,0.04824000000000006,4.999392411494816,-0.0028225818947114484,-0.0020452620070694396,0
1207,0.0482800000000001,5.000378781950543,-0.0031513717215847087,-0.0023703082927341444,0
1208,0.04831999999999992,4.99972120164681,-0.001178632758433426,-0.00039382583139351175,0
1209,0.04835999999999996,5.000049991798719,0.001122896037706475,0.0019114464023559593,0
1210,0.0484,5.000049991798719,-0.00348016154833046,-0.0026878678242221767,0
1211,0.04844000000000004,4.99972120164681,-0.0047953208540382625,-0.0039992838662032786,0
1212,0.04848000000000008,5.000378781950543,-0.0005210531030302584,0.00027872703520778926,0
1213,0.0485199999999999,4.99972120164681,0.00013652655288240445,0.0009400497105982209,0
1214,0.04855999999999994,5.000049991798719,-0.0005210531030302584,0.00028621292562634195,0
1215,0.04859999999999998,5.000378781950543,-0.00019226327513760522,0.0006187454583011714,0
1216,0.04864000000000002,5.000378781950543,-0.004137741201439435,-0.003322989947008544,0
1217,0.04868000000000006,5.000049991798719,-0.0024937920677107622,-0.0016752984937190188,0
1218,0.0487200000000001,4.99972120164681,-0.002165002240582567,-0.0013427665661120605,0
1219,0.048759999999999915,5.000378781950543,-0.004137741201439435,-0.0033117636632326248,0
1220,0.048799999999999955,5.000378781950543,-0.005781690331979852,-0.00495197118444901,0
1221,0.048839999999999995,5.000378781950543,-0.0047953208540382625,-0.003961860369274806,0
1222,0.048880000000000035,5.000378781950543,0.001780475694892425,0.002617677227108692,0
1223,0.048920000000000075,5.000378781950543,0.0007941062093044515,0.0016350484814962145,0
1224,0.048960000000000115,4.99972120164681,-0.0031513717215847087,-0.002306689034601338,0
1225,0.04899999999999993,5.000049991798719,-0.006110480157705198,-0.005262057398829623,0
1226,0.04903999999999997,5.001036362253937,-0.0047953208540382625,-0.0039431583838942475,0
1227,0.04908000000000001,5.000049991798719,-0.005781690331979852,-0.004925788528924256,0
1228,0.04912000000000005,5.000378781950543,-0.005452900506126915,-0.004593259766258333,0
1229,0.04916000000000009,5.000378781950543,-0.006110480157705198,-0.005247100894872495,0
1230,0.04919999999999991,5.000049991798719,-0.0008498429307955274,1.7274423393715877e-05,0
1231,0.04923999999999995,5.000049991798719,-0.003808951374948702,-0.002938096378777543,0
1232,0.04927999999999999,4.99972120164681,-0.0015074225859438989,-0.0006328304149407543,0
1233,0.04932000000000003,4.99972120164681,-0.0018362124133269458,-0.0009578835524251855,0
1234,0.04936000000000007,5.000049991798719,-0.005781690331979852,-0.004899625283904338,0
1235,0.04940000000000011,5.000049991798719,-0.004137741201439435,-0.0032519404867144717,0
1236,0.04943999999999993,5.000049991798719,-0.004466531027802631,-0.003576995184759799,0
1237,0.04947999999999997,5.000378781950543,-0.0024937920677107622,-0.0016005216524966667,0
1238,0.04952000000000001,5.000049991798719,-0.0047953208540382625,-0.003898316440622167,0
1239,0.04956000000000005,5.000707572102282,-0.0008498429307955274,5.089488902308866e-05,0
1240,0.04960000000000009,5.000049991798719,-0.003808951374948702,-0.0029044807583646927,0
1241,0.049639999999999906,5.000049991798719,-0.006110480157705198,-0.005202277371837926,0
1242,0.049679999999999946,5.000049991798719,-0.006439269983302923,-0.0055273356734867616,0
1243,0.049719999999999986,5.000378781950543,-0.00874079875891258,-0.00782513358834127,0
1244,0.049760000000000026,5.000378781950543,-0.005124110680146385,-0.00420471532988008,0
1245,0.049800000000000066,5.000049991798719,-0.004466531027802631,-0.0035434061967748033,0
1246,0.049840000000000106,4.99972120164681,-0.006439269983302923,-0.005512416388327177,0
1247,0.049879999999999924,5.000378781950543,-0.0031513717215847087,-0.00222079009736149,0
1248,0.049919999999999964,5.000049991798719,-0.004466531027802631,-0.0035322221269258112,0
1249,0.049960000000000004,5.000049991798719,-0.004137741201439435,-0.0031997057944028184,0
1250,0.050000000000000044,5.000049991798719,-0.007754429284417372,-0.0068126681596210785,0
1251,0.050040000000000084,4.99972120164681,-0.007096849634115457,-0.006151363597872216,0
1252,0.0500799999999999,5.000049991798719,0.00013652655288240445,0.0010857366763410688,0
1253,0.05011999999999994,5.002022732708393,-0.006110480157705198,-0.005157546789187498,0
1254,0.05015999999999998,4.99972120164681,-0.005452900506126915,-0.004496244752637444,0
1255,0.05020000000000002,4.99972120164681,-0.0024937920677107622,-0.0015334148072735207,0
1256,0.05024000000000006,5.000378781950543,-0.006768059808773,-0.005803961937354507,0
1257,0.0502800000000001,5.000707572102282,-0.004466531027802631,-0.003498713459317617,0
1258,0.05031999999999992,5.000049991798719,-0.008412008934208556,-0.007440472600525528,0
1259,0.05035999999999996,4.999063621342738,-0.007096849634115457,-0.0061215954850621914,0
1260,0.0504,5.000378781950543,-0.005452900506126915,-0.004473929509495796,0
1261,0.05044000000000004,5.000378781950543,-0.003808951374948702,-0.002826264516501983,0
1262,0.05048000000000008,5.000378781950543,-0.006110480157705198,-0.005124078441180128,0
1263,0.0505199999999999,5.000049991798719,-0.001178632758433426,-0.0001885172055472991,0
1264,0.05055999999999994,5.001036362253937,-0.007096849634115457,-0.006103021284570517,0
1265,0.05059999999999998,5.000378781950543,-0.008412008934208556,-0.007414468845696846,0
1266,0.05064000000000002,5.000049991798719,-0.004137741201439435,-0.0031364904496475055,0
1267,0.05068000000000006,5.000049991798719,-0.004466531027802631,-0.00346157070641613,0
1268,0.0507200000000001,5.000049991798719,-0.005781690331979852,-0.004773021552688045,0
1269,0.050759999999999916,5.000378781950543,-0.007096849634115457,-0.006084473526615615,0
1270,0.050799999999999956,4.99972120164681,-0.008412008934208556,-0.007395926646210237,0
1271,0.050839999999999996,4.99972120164681,-0.007425639459330238,-0.006405852156559463,0
1272,0.050880000000000036,5.000049991798719,-0.007096849634115457,-0.0060733585003187466,0
1273,0.050920000000000076,5.000049991798719,-0.00808321910937683,-0.007056025346325141,0
1274,0.050960000000000116,4.999392411494816,-0.006110480157705198,-0.005079584985197766,0
1275,0.050999999999999934,5.000378781950543,-0.006768059808773,-0.0057334644646410415,0
1276,0.051039999999999974,5.000378781950543,-0.00808321910937683,-0.00704492484948717,0
1277,0.051080000000000014,5.000049991798719,-0.007754429284417372,-0.006712437382675951,0
1278,0.051120000000000054,5.000378781950543,-0.00939837840793746,-0.00835269015629271,0
1279,0.051160000000000094,5.000378781950543,-0.010055958056451306,-0.009006574764897437,0
1280,0.05119999999999991,4.99972120164681,-0.00348016154833046,-0.0024270845449106465,0
1281,0.05123999999999995,4.99972120164681,-0.005781690331979852,-0.0047249209627892655,0
1282,0.05127999999999999,5.000378781950543,-0.005781690331979852,-0.004721229961168619,0
1283,0.05132000000000003,5.000378781950543,-0.007425639459330238,-0.006361489469106259,0
1284,0.05136000000000007,5.000049991798719,-0.007096849634115457,-0.00602901142474712,0
1285,0.05140000000000011,5.000378781950543,-0.008412008934208556,-0.00734048392402733,0
1286,0.05143999999999993,4.998406041038327,-0.007425639459330238,-0.0063504290847331505,0
1287,0.05147999999999997,5.000049991798719,-0.005124110680146385,-0.004045216395598376,0
1288,0.05152000000000001,5.000378781950543,-0.008412008934208556,-0.007329432212244737,0
1289,0.05156000000000005,5.000378781950543,-0.0028225818947114484,-0.0017363242259392665,0
1290,0.05160000000000009,4.99972120164681,-0.00348016154833046,-0.0023902244414317135,0
1291,0.05163999999999991,4.99972120164681,-0.0031513717215847087,-0.0020577567033174993,0
1292,0.05167999999999995,4.999063621342738,-0.002165002240582567,-0.00106771085578311,0
1293,0.05171999999999999,5.000049991798719,-0.0018362124133269458,-0.000735246224911284,0
1294,0.05176000000000003,4.99972120164681,-0.0028225818947114484,-0.0017179424836770494,0
1295,0.05180000000000007,5.000707572102282,-0.0024937920677107622,-0.0013854810331380123,0
1296,0.05184000000000011,5.001036362253937,0.0004653163810297567,0.0015772974219761793,0
1297,0.051879999999999926,5.000049991798719,-0.0031513717215847087,-0.0020357223095148432,0
1298,0.051919999999999966,5.000378781950543,-0.004466531027802631,-0.003347214897946265,0
1299,0.051960000000000006,5.000378781950543,-0.00348016154833046,-0.0023571803721122828,0
1300,0.052000000000000046,5.001036362253937,-0.0028225818947114484,-0.0016959373616448215,0
1301,0.052040000000000086,5.000049991798719,-0.001178632758433426,-4.83265761211985e-05,0
1302,0.052079999999999904,5.000049991798719,-0.003808951374948702,-0.0026749852690839074,0
1303,0.052119999999999944,5.000378781950543,-0.00348016154833046,-0.0023425372626969085,0
1304,0.052159999999999984,5.000378781950543,-0.0031513717215847087,-0.0020100910180574525,0
1305,0.052200000000000024,5.000049991798719,-0.0028225818947114484,-0.001677646553257137,0
1306,0.052240000000000064,5.000707572102282,-0.001178632758433426,-3.0044577110557164e-05,0
1307,0.052280000000000104,4.99972120164681,-0.00019226327513760522,0.000959975929903341,0
1308,0.05231999999999992,5.000707572102282,-0.005452900506126915,-0.0042970121116103766,0
1309,0.05235999999999996,5.000378781950543,-0.0018362124133269458,-0.0006766766816692336,0
1310,0.0524,5.000378781950543,-0.0008498429307955274,0.000313338267577231,0
1311,0.05244000000000004,5.000378781950543,-0.0018362124133269458,-0.000669387636756673,0
1312,0.05248000000000008,5.000049991798719,-0.003808951374948702,-0.0026384849267894177,0
1313,0.0525199999999999,4.99972120164681,-0.0018362124133269458,-0.0006621062182775802,0
1314,0.05255999999999994,5.000049991798719,-0.0024937920677107622,-0.0013160480685600003,0
1315,0.05259999999999998,5.000707572102282,-0.007096849634115457,-0.005915469791740969,0
1316,0.05264000000000002,5.000049991798719,-0.008412008934208556,-0.007226995227576113,0
1317,0.05268000000000006,4.99972120164681,-0.0090695885834889,-0.007880943009651368,0
1318,0.0527200000000001,5.000049991798719,-0.006768059808773,-0.005575784382869225,0
1319,0.05275999999999992,4.99972120164681,-0.005124110680146385,-0.00392820743539996,0
1320,0.05279999999999996,5.000707572102282,-0.0116999071754995,-0.010500378163217418,0
1321,0.05284,5.000049991798719,-0.0113711173519455,-0.010167964641516716,0
1322,0.05288000000000004,5.000049991798719,-0.00874079875891258,-0.007534024437806426,0
1323,0.05292000000000008,5.000049991798719,-0.012028696998925656,-0.010818303172690166,0
1324,0.052959999999999896,5.000378781950543,-0.01301506646843685,-0.011801055260696964,0
1325,0.052999999999999936,5.000707572102282,-0.010713537704454032,-0.009495911256909703,0
1326,0.053039999999999976,5.000049991798719,-0.007096849634115457,-0.0058756101065396155,0
1327,0.053080000000000016,4.999392411494816,-0.007096849634115457,-0.0058719992043518646,0
1328,0.053120000000000056,5.000049991798719,-0.006439269983302923,-0.005210810847263938,0
1329,0.053160000000000096,5.000707572102282,-0.006110480157705198,-0.004878414529369408,0
1330,0.053199999999999914,5.000049991798719,-0.005452900506126915,-0.004217230617536677,0
1331,0.053239999999999954,5.000049991798719,-0.007096849634115457,-0.005857577735374308,0
1332,0.053279999999999994,4.99972120164681,-0.007754429284417372,-0.0065115576436873355,0
1333,0.053320000000000034,4.999063621342738,-0.005124110680146385,-0.0038776415836451463,0
1334,0.053360000000000074,5.000049991798719,-0.004466531027802631,-0.003216466779800589,0
1335,0.053400000000000114,4.99972120164681,-0.0028225818947114484,-0.0015689248175286582,0
1336,0.05343999999999993,5.000707572102282,-0.0031513717215847087,-0.001894124155587698,0
1337,0.05347999999999997,5.000378781950543,-0.005124110680146385,-0.003863274983744862,0
1338,0.05352000000000001,4.99972120164681,-0.00808321910937683,-0.006818797659020277,0
1339,0.05356000000000005,5.000049991798719,-0.007096849634115457,-0.005828844824289607,0
1340,0.05360000000000009,4.99972120164681,-0.005781690331979852,-0.004510104575203029,0
1341,0.05363999999999991,4.99972120164681,-0.006110480157705198,-0.004835315884524557,0
1342,0.05367999999999995,5.000049991798719,-0.003808951374948702,-0.002530211033936339,0
1343,0.05371999999999999,5.000049991798719,-0.004466531027802631,-0.0031842170855515763,0
1344,0.05376000000000003,4.99972120164681,-0.003808951374948702,-0.00252306631606881,0
1345,0.05380000000000007,4.999392411494816,-0.009727168232258263,-0.008437714559371971,0
1346,0.05384000000000011,5.000378781950543,-0.006110480157705198,-0.004817460391443188,0
1347,0.05387999999999993,4.999063621342738,-0.0028225818947114484,-0.0015259985737081472,0
1348,0.05391999999999997,5.001036362253937,-0.002165002240582567,-0.0008648579214715476,0
1349,0.05396000000000001,4.99972120164681,-0.0031513717215847087,-0.0018476689789939831,0
1350,0.05400000000000005,5.000049991798719,-0.007754429284417372,-0.006447170710964557,0
1351,0.05404000000000009,5.000049991798719,-0.0008498429307955274,0.0004609688629170876,0
1352,0.054079999999999906,4.99972120164681,-0.006439269983302923,-0.005124907597912379,0
1353,0.054119999999999946,5.000378781950543,-0.00874079875891258,-0.007422888428400413,0
1354,0.054159999999999986,5.000049991798719,-0.0018362124133269458,-0.0005147568022185957,0
1355,0.054200000000000026,5.000378781950543,-0.003808951374948702,-0.0024839531657333052,0
1356,0.054240000000000066,5.000378781950543,-0.0047953208540382625,-0.003466782747163148,0
