,seconds,Trig,EMG_amplitude,EMG_amplitude_filter,peaks
0,0.0,5.000049991798719,0.13526915648987867,0.12630355864621468,0
1,4.0000000000040004e-05,5.000049991798719,0.14480406303910212,0.13590764903522123,0
2,8.000000000008001e-05,5.000707572102282,0.1415161642174927,0.13268901829371144,0
3,0.00011999999999989797,5.000049991798719,0.15598291912315737,0.14722512500425988,0
4,0.00015999999999993797,5.000049991798719,0.16157234721755911,0.15288398811164947,0
5,0.00019999999999997797,5.000707572102282,0.1740663630838078,0.16544752168116703,0
6,0.00024000000000001798,5.000378781950543,0.176039102446966,0.1674898609189141,0
7,0.000280000000000058,5.000049991798719,0.18491642963454402,0.1764368696323061,0
8,0.000320000000000098,5.000707572102282,0.18886190841256045,0.1804521110661376,0
9,0.00035999999999991594,5.000049991798719,0.19773923572589475,0.18939928164293973,0
10,0.00039999999999995595,5.000049991798719,0.20398624388728276,0.19571621315198043,0
11,0.00043999999999999595,5.000049991798719,0.21023325209152194,0.2020332242634746,0
12,0.00048000000000003595,5.000049991798719,0.2184529997938034,0.210323053906921,0
13,0.000520000000000076,5.000049991798719,0.22765911730796928,0.21959933186936476,0
14,0.0005599999999998939,5.000378781950543,0.23587886516645812,0.22788931815534774,0
15,0.0005999999999999339,5.000378781950543,0.2414682937521372,0.2335490626187458,0
16,0.0006399999999999739,5.000707572102282,0.25560626032565464,0.2477574219901259,0
17,0.0006800000000000139,5.000049991798719,0.2605381091811092,0.25275974003242063,0
18,0.0007200000000000539,5.000049991798719,0.2704018069704751,0.2626939828653576,0
19,0.0007600000000000939,4.99972120164681,0.28092308472741295,0.273285880989275,0
20,0.0007999999999999119,5.000049991798719,0.29571863177299734,0.2881521231908542,0
21,0.0008399999999999519,5.000378781950543,0.3049247500521106,0.29742901087951906,0
22,0.0008799999999999919,4.99972120164681,0.32070666731055003,0.31328177126454687,0
23,0.0009200000000000319,4.99972120164681,0.3355022149783873,0.32814823523843334,0
24,0.0009600000000000719,5.000378781950543,0.3489826030529947,0.34169961225992374,0
25,0.001000000000000112,5.000378781950543,0.36772363069037395,0.3605117009453454,0
26,0.0010399999999999299,4.99972120164681,0.38219038911505043,0.375049591978508,0
27,0.0010799999999999699,5.000049991798719,0.40060262742113245,0.3935330339117668,0
28,0.0011200000000000099,5.000707572102282,0.41704212620123404,0.41004380679495067,0
29,0.0011600000000000499,5.000378781950543,0.43972863496763176,0.43280165959652367,0
30,0.0012000000000000899,5.000378781950543,0.45715450437175065,0.45029894242307655,0
31,0.0012399999999999078,5.000049991798719,0.47951222405108856,0.47272814436625543,0
32,0.0012799999999999478,5.000378781950543,0.49726688414915865,0.4905543550227097,0
33,0.0013199999999999878,5.000378781950543,0.5107472744306769,0.5041063636092833,0
34,0.0013600000000000279,5.000049991798719,0.532118625240695,0.5255493999221548,0
35,0.0014000000000000679,5.000378781950543,0.5429686958216059,0.5364712226538472,0
36,0.0014400000000001079,4.99972120164681,0.5597369869426525,0.5533113320227424,0
37,0.0014799999999999258,5.000049991798719,0.5715734278963404,0.5652196567694983,0
38,0.0015199999999999658,5.000049991798719,0.5797931786372817,0.5735113562958973,0
39,0.0015600000000000058,5.000378781950543,0.5863689792762864,0.5801591701589426,0
40,0.0016000000000000458,5.000378781950543,0.5942599400971913,0.5881222080876921,0
41,0.0016400000000000858,5.000707572102282,0.5945887301326738,0.5885231385590759,0
42,0.0016799999999999038,5.000049991798719,0.5913008297824468,0.5853074414160973,0
43,0.0017199999999999438,5.000049991798719,0.5909720397479864,0.5850509168025652,0
44,0.0017599999999999838,4.99972120164681,0.5922871998864417,0.5864384040170094,0
45,0.0018000000000000238,5.001036362253937,0.5982054205297189,0.5924290128317702,1
46,0.0018400000000000638,5.000707572102282,0.5978766304931137,0.5921726715016358,0
47,0.0018800000000001038,5.000378781950543,0.5886705095096281,0.5830390591981636,0
48,0.0019199999999999218,5.000049991798719,0.5755189082439633,0.5699600260236786,0
49,0.0019599999999999618,5.000378781950543,0.5656552074027524,0.5601689521215096,0
50,0.0020000000000000018,4.99972120164681,0.5561202966780007,0.5507067266194352,0
51,0.0020400000000000418,5.000049991798719,0.5498732862504578,0.5445324591330614,0
52,0.002080000000000082,5.000378781950543,0.541653535745132,0.5363855087213409,0
53,0.0021199999999998997,5.000378781950543,0.5383656355612552,0.5331704652165454,0
54,0.0021599999999999397,5.000378781950543,0.5340913653378426,0.5289691076898281,0
55,0.0021999999999999797,5.000049991798719,0.5268579850000842,0.5218086954976201,0
56,0.0022400000000000198,5.000378781950543,0.5222549248115987,0.5172786583338901,0
57,0.0022800000000000598,5.000049991798719,0.5117336444582629,0.506830455313979,0
58,0.0023200000000000998,5.000049991798719,0.5058154243070226,0.500985366233416,0
59,0.0023599999999999177,5.000049991798719,0.5025275242378207,0.4977706503998521,0
60,0.0023999999999999577,4.99972120164681,0.49792446415875496,0.49324082714822354,0
61,0.0024399999999999977,4.99972120164681,0.4952941441229205,0.4906837959575995,0
62,0.0024800000000000377,5.000049991798719,0.49463656411502505,0.49009955623780255,0
63,0.0025200000000000777,5.000378781950543,0.49463656411502505,0.4901729473930496,0
64,0.0025599999999998957,5.000378781950543,0.49463656411502505,0.49024638883885724,0
65,0.0025999999999999357,5.000378781950543,0.4966093041399874,0.49229262002275653,0
66,0.0026399999999999757,5.000378781950543,0.501541154219127,0.49729801039569366,0
67,0.0026800000000000157,5.000049991798719,0.5021987342314833,0.49802917925760737,0
68,0.0027200000000000557,4.99972120164681,0.504171474271097,0.5000755561226109,0
69,0.0027600000000000957,5.000049991798719,0.5091033243868143,0.5050810904588023,0
70,0.0027999999999999137,4.99972120164681,0.5179806546550381,0.5140321517610205,0
71,0.0028399999999999537,5.000707572102282,0.5235700848633494,0.5196953592344717,0
72,0.0028799999999999937,5.000378781950543,0.5298170951321238,0.5260161924163526,0
73,0.0029200000000000337,4.99972120164681,0.5357353154216782,0.532008280683001,0
74,0.0029600000000000737,5.000378781950543,0.5432974858409853,0.5396443635586174,0
75,0.0029999999999998916,4.99972120164681,0.5475717561024035,0.5439925901699998,0
76,0.0030399999999999316,4.99972120164681,0.5455990159795604,0.5420938497044325,0
77,0.0030799999999999716,5.000378781950543,0.5492157062076363,0.5457845823099765,0
78,0.0031200000000000117,4.999392411494816,0.5538187665161218,0.5504617271282326,0
79,0.0031600000000000517,5.000378781950543,0.5508596563154704,0.5475767429809999,0
80,0.0032000000000000917,4.99972120164681,0.5643400472976111,0.5611313009707954,0
81,0.0032399999999999096,4.999392411494816,0.5712446378680417,0.5681100989129532,0
82,0.0032799999999999496,5.000378781950543,0.5722310079532472,0.56917071614305,0
83,0.0033199999999999896,5.000378781950543,0.5626960971685114,0.5597100916847215,0
84,0.0033600000000000296,5.000049991798719,0.556777876725186,0.5538661961569369,0
85,0.0034000000000000696,5.000378781950543,0.5475717561024035,0.5447344384457176,0
86,0.0034400000000001096,5.000378781950543,0.5373792655081296,0.5346163481651948,0
87,0.0034799999999999276,4.99972120164681,0.5331049952887975,0.5304165150672496,0
88,0.0035199999999999676,4.99972120164681,0.5262004049718968,0.5235863980841073,0
89,0.0035600000000000076,5.000049991798719,0.5163367045995629,0.5137972066619316,0
90,0.0036000000000000476,5.000378781950543,0.5196246047131478,0.5171596507454009,0
91,0.0036400000000000876,5.000378781950543,0.5084457443700094,0.5060553687945039,0
92,0.0036799999999999056,4.99972120164681,0.49693809414451995,0.4946223307855534,0
93,0.0037199999999999456,5.000049991798719,0.48214254404598017,0.47990142612910824,0
94,0.0037599999999999856,5.000049991798719,0.474580374079132,0.4724139342304895,0
95,0.0038000000000000256,5.000707572102282,0.4617575642650668,0.45966583451069454,0
96,0.0038400000000000656,4.99972120164681,0.45978482430819984,0.457767836073376,0
97,0.0038800000000001056,4.99972120164681,0.44860596462604646,0.44666374873462356,0
98,0.0039199999999999235,5.000707572102282,0.4417013748848855,0.4398339615586325,0
99,0.0039599999999999635,4.99972120164681,0.43150888535456355,0.4297163042125146,0
100,0.0040000000000000036,5.000378781950543,0.42098760594931867,0.419269886007127,0
101,0.0040400000000000436,5.000378781950543,0.40816479682581774,0.4065219664951151,0
102,0.0040800000000000836,4.999392411494816,0.40060262742113245,0.399034714508894,0
103,0.0041199999999999015,5.000049991798719,0.3933692480451899,0.3918762797531035,0
104,0.0041599999999999415,5.000049991798719,0.37561458980436124,0.37419659272820294,0
105,0.0041999999999999815,4.99972120164681,0.36410694111796427,0.36276394124697975,0
106,0.0042400000000000215,4.99972120164681,0.3549008222675213,0.35363284498381364,0
107,0.0042800000000000615,5.000049991798719,0.3437219637818044,0.34252903385972694,0
108,0.0043200000000001015,5.000378781950543,0.3256385165076316,0.32452065811318553,0
109,0.0043599999999999195,5.000378781950543,0.31380207847764385,0.3127593151678826,0
110,0.0043999999999999595,5.000378781950543,0.3016368506563994,0.3006692053788379,0
111,0.0044399999999999995,5.000049991798719,0.29012920286171656,0.2892366979537466,0
112,0.0044800000000000395,4.99972120164681,0.27105938682681197,0.27024204401512364,0
113,0.0045200000000000795,4.99972120164681,0.25823657971197106,0.2574944201119796,0
114,0.0045599999999998975,5.000378781950543,0.24870167197207022,0.24803471608734912,0
115,0.0045999999999999375,4.99972120164681,0.23226217609967434,0.2316704438213943,0
116,0.0046399999999999775,5.000049991798719,0.21648026033851664,0.2159637709448895,0
117,0.0046800000000000175,5.000378781950543,0.20332866407880126,0.20288743623453057,0
118,0.0047200000000000575,5.000049991798719,0.18688916902140254,0.18652322077713981,0
119,0.0047600000000000975,5.000378781950543,0.17110725404716948,0.1708166028389765,0
120,0.0047999999999999154,5.000049991798719,0.15236623037478086,0.1521508930235979,0
121,0.0048399999999999554,4.99972120164681,0.1355979463691857,0.13545793908030532,0
122,0.0048799999999999955,4.99972120164681,0.11554176395451755,0.1154771023170646,0
123,0.0049200000000000355,4.99972120164681,0.09811590091487153,0.09812659990128869,0
124,0.0049600000000000755,4.99972120164681,0.08036124836247038,0.08044732232800994,0
125,0.004999999999999893,5.000378781950543,0.06030506721035353,0.06046652989257473,0
126,0.005039999999999933,5.000378781950543,0.04123525605372079,0.04147212057199334,0
127,0.005079999999999973,4.998734831190575,0.02117907581044083,0.021491354665454876,0
128,0.005120000000000013,5.000049991798719,0.008027482463535476,0.008415187536817748,0
129,0.005160000000000053,5.000049991798719,-0.0116999071754995,-0.011236764622063411,0
130,0.0052000000000000934,5.000049991798719,-0.028139398189897927,-0.027600807514535308,0
131,0.005239999999999911,5.000707572102282,-0.03866067227056637,-0.03804662345208282,0
132,0.005279999999999951,5.001036362253937,-0.04951073602790314,-0.04882121966614145,0
133,0.005319999999999991,4.999392411494816,-0.06496385689333826,-0.0641988642096305,0
134,0.005360000000000031,5.000049991798719,-0.08502003460903816,-0.08417955744665107,0
135,0.005400000000000071,5.000049991798719,-0.07975939787816717,-0.07884342870274208,0
136,0.005440000000000111,5.000378781950543,-0.08896551213519292,-0.08797404403517878,0
137,0.005479999999999929,5.000049991798719,-0.0971852569206733,-0.09611828360775332,0
138,0.005519999999999969,5.000378781950543,-0.10441863226392899,-0.10327614807344132,0
139,0.005560000000000009,5.000378781950543,-0.10573379141039972,-0.10451579130175187,0
140,0.005600000000000049,4.99972120164681,-0.10836410969701198,-0.10707058925408969,0
141,0.005640000000000089,5.000378781950543,-0.11230958711109378,-0.11094054254266383,0
142,0.005679999999999907,5.000049991798719,-0.1182278031965366,-0.11678323133664364,0
143,0.005719999999999947,5.000378781950543,-0.11724143385193893,-0.11572133216029729,0
144,0.005759999999999987,5.000049991798719,-0.12085812144297166,-0.11926248800535,0
145,0.005800000000000027,5.000378781950543,-0.12315964990164728,-0.12148848343024815,0
146,0.005840000000000067,5.000049991798719,-0.1251323885753416,-0.12338568840917469,0
147,0.005880000000000107,4.99972120164681,-0.12874907613137498,-0.12692684223662426,0
148,0.005919999999999925,4.999063621342738,-0.1277627067995044,-0.12586493976988833,0
149,0.005959999999999965,5.000049991798719,-0.13598245119521052,-0.13400915225233562,0
150,0.006000000000000005,5.000378781950543,-0.13992792847560936,-0.13787909946931703,0
151,0.006040000000000045,5.000378781950543,-0.13959913870297558,-0.13747478211168218,0
152,0.006080000000000085,4.99972120164681,-0.14387340573681423,-0.14167352466784539,0
153,0.006119999999999903,4.99972120164681,-0.148476462517262,-0.14620106070718109,0
154,0.006159999999999943,4.99972120164681,-0.15242193973679719,-0.1500710215517273,0
155,0.006199999999999983,5.000049991798719,-0.15307951927151348,-0.15065308970745334,0
156,0.006240000000000023,5.000049991798719,-0.15373709880569447,-0.15123516348882832,0
157,0.006280000000000063,5.000378781950543,-0.1606416838822417,-0.15806424906924232,0
158,0.006320000000000103,5.000049991798719,-0.16491595080474653,-0.16226302338307275,0
159,0.006359999999999921,5.000378781950543,-0.16623110985325845,-0.16350269734144718,0
160,0.006399999999999961,4.999392411494816,-0.16721747913823115,-0.16441358968618203,0
161,0.006440000000000001,5.000378781950543,-0.17017658698588745,-0.16729722937514085,0
162,0.006480000000000041,5.000049991798719,-0.17050537674606547,-0.16755056039007293,0
163,0.006520000000000081,5.000049991798719,-0.17083416650610883,-0.16780390145049745,0
164,0.006559999999999899,5.000049991798719,-0.1737932743404409,-0.17068757126327078,0
165,0.006599999999999939,5.000049991798719,-0.1721493255449364,-0.1689681957569507,0
166,0.006639999999999979,4.99972120164681,-0.1734644845816094,-0.17020794002647793,0
167,0.006680000000000019,4.999392411494816,-0.17708117192134348,-0.1737492251758994,0
168,0.006720000000000059,4.99972120164681,-0.17773875143590606,-0.1743314157103767,0
169,0.006760000000000099,4.99972120164681,-0.1744508538576997,-0.17096814299593138,0
170,0.006799999999999917,5.000707572102282,-0.1737932743404409,-0.17023520282011784,0
171,0.006839999999999957,4.999063621342738,-0.1744508538576997,-0.17081743679055594,0
172,0.006879999999999997,4.99972120164681,-0.17839633094992902,-0.17468758408195473,0
173,0.006920000000000037,5.000378781950543,-0.17839633094992902,-0.17461227066157042,0
174,0.006960000000000077,5.000378781950543,-0.18004027973262504,-0.17618092303897825,0
175,0.006999999999999895,5.000378781950543,-0.17510843337441945,-0.17117379792541743,0
176,0.007039999999999935,5.001036362253937,-0.17872512070673813,-0.17471522478733054,0
177,0.007079999999999975,5.001036362253937,-0.1760948026484882,-0.1720096651788155,0
178,0.007120000000000015,4.999063621342738,-0.178067541192985,-0.17390718172854625,0
179,0.007160000000000055,4.997748460733576,-0.18004027973262504,-0.17580471846443918,0
180,0.007200000000000095,5.003666683464122,-0.1754372231325772,-0.17112648088733734,0
181,0.007239999999999913,5.001365152405508,-0.17839633094992902,-0.17401042919014914,0
182,0.007279999999999953,4.99972120164681,-0.17642359240624145,-0.17196255323039705,0
183,0.007319999999999993,5.000378781950543,-0.17938270021995156,-0.17484654636261365,0
184,0.007360000000000033,5.000049991798719,-0.17905391046341235,-0.1744426652953749,0
185,0.007400000000000073,5.000707572102282,-0.17938270021995156,-0.1746963877483524,0
186,0.007440000000000113,5.000378781950543,-0.18168422851194627,-0.17692287338038126,0
187,0.007479999999999931,4.999392411494816,-0.18530091581456487,-0.1804645433031956,0
188,0.007519999999999971,5.000049991798719,-0.18234180802272937,-0.17743044404838415,0
189,0.007560000000000011,4.99972120164681,-0.18168422851194627,-0.1766978996282143,0
190,0.007600000000000051,5.000049991798719,-0.18562970556853736,-0.18056843896585656,0
191,0.007640000000000091,4.999392411494816,-0.18069785924475862,-0.17556168275049633,0
192,0.007679999999999909,5.000378781950543,-0.18628728507607667,-0.18107622715460364,0
193,0.007719999999999949,5.000378781950543,-0.18201301826740535,-0.17672710802016245,0
194,0.007759999999999989,4.99972120164681,-0.19023276210994672,-0.18487202927550506,0
195,0.007800000000000029,5.000049991798719,-0.18661607482964343,-0.18118054978375753,0
196,0.00784000000000007,5.000049991798719,-0.1869448645830749,-0.181434578338729,0
197,0.00788000000000011,5.000378781950543,-0.18431454655183616,-0.17872953075928405,0
198,0.007919999999999927,5.000378781950543,-0.18431454655183616,-0.1786548334986336,0
199,0.007959999999999967,4.999392411494816,-0.18299938753297212,-0.1772650101440026,0
200,0.008000000000000007,5.000378781950543,-0.18431454655183616,-0.17850553838932937,0
201,0.008040000000000047,5.000378781950543,-0.1869448645830749,-0.18106125984661764,0
202,0.008080000000000087,5.000378781950543,-0.18924639285330647,-0.18328822637984693,0
203,0.008119999999999905,5.000049991798719,-0.19056155186188928,-0.18452885912573386,0
204,0.008159999999999945,5.000378781950543,-0.18760244408953197,-0.1814952612023346,0
205,0.008199999999999985,4.99972120164681,-0.18793123384255755,-0.18174959755330217,0
206,0.008240000000000025,4.99972120164681,-0.18760244408953197,-0.18134639178450873,0
207,0.008280000000000065,4.99972120164681,-0.18891760310082228,-0.18258717280359643,0
208,0.008320000000000105,5.000049991798719,-0.18924639285330647,-0.18284162322467978,0
209,0.008359999999999923,5.000049991798719,-0.19253429037070002,-0.1860552207086651,0
210,0.008399999999999963,4.999392411494816,-0.19253429037070002,-0.18598096061038732,0
211,0.008440000000000003,5.001036362253937,-0.1912191313653681,-0.18459158207898552,0
212,0.008480000000000043,5.000049991798719,-0.19154792111690433,-0.18484619351367004,0
213,0.008520000000000083,5.000049991798719,-0.18891760310082228,-0.18214173902689035,0
214,0.008559999999999901,4.99972120164681,-0.18365696704267448,-0.17680700898105373,0
215,0.008599999999999941,5.000049991798719,-0.17576601289060007,-0.16884200396106674,0
216,0.008639999999999981,5.000049991798719,-0.1744508538576997,-0.16745283781670256,0
217,0.008680000000000021,5.000049991798719,-0.16721747913823115,-0.16014550037878938,0
218,0.008720000000000061,5.000049991798719,-0.1599841043536892,-0.15283820790528357,0
219,0.008760000000000101,4.99972120164681,-0.15209314996923823,-0.14487338149769483,0
220,0.008799999999999919,5.000049991798719,-0.14255824665188005,-0.13526465245924751,0
221,0.008839999999999959,4.99972120164681,-0.13137939434385165,-0.12401202136827083,0
222,0.008879999999999999,5.000049991798719,-0.12414601923909123,-0.1167049150546576,0
223,0.008920000000000039,5.000049991798719,-0.10902168926734575,-0.10150690208396496,0
224,0.008960000000000079,5.000707572102282,-0.10507621183742798,-0.0974877905006638,0
225,0.008999999999999897,5.000378781950543,-0.09225341005923197,-0.08459140405014764,0
226,0.009039999999999937,4.99972120164681,-0.0843624550195116,-0.07662691445450381,0
227,0.009079999999999977,5.000707572102282,-0.07778665909545869,-0.0699776347260849,0
228,0.009120000000000017,5.000707572102282,-0.07219723251891826,-0.06431477573171682,0
229,0.009160000000000057,5.000378781950543,-0.06036079964426265,-0.052404962460566085,0
230,0.009200000000000097,5.000378781950543,-0.05510016275699865,-0.04707099783273991,0
231,0.009239999999999915,5.000049991798719,-0.04951073602790314,-0.041408296653414375,0
232,0.009279999999999955,4.99972120164681,-0.04161978058197445,-0.03344412068177864,0
233,0.009319999999999995,5.000378781950543,-0.03734551301769716,-0.02909668715029269,0
234,0.009360000000000035,5.000378781950543,-0.028468188006913683,-0.02014625136455185,0
235,0.009400000000000075,5.000049991798719,-0.026166659285104213,-0.017771667693559326,0
236,0.009439999999999893,4.99972120164681,-0.01860449344057817,-0.01013650335891067,0
237,0.009479999999999933,5.000378781950543,-0.017618123977595282,-0.009077192497907657,0
238,0.009519999999999973,4.99972120164681,-0.00939837840793746,-0.0007845632551228693,0
239,0.009560000000000013,5.000049991798719,-0.004466531027802631,0.004220109440713757,0
240,0.009600000000000053,5.000378781950543,-0.0018362124133269458,0.0069231943811999125,0
241,0.009640000000000093,4.99972120164681,0.0021092655236763236,0.010941379022529264,0
242,0.009679999999999911,5.000049991798719,0.005397163818512657,0.01430192376829454,0
243,0.009719999999999951,5.000049991798719,0.01328811977796078,0.022265465293849117,0
244,0.009759999999999991,5.000049991798719,0.018877546960101396,0.027927416526143015,0
245,0.009800000000000031,5.000049991798719,0.021507865646709548,0.030630197116122526,0
246,0.009840000000000071,5.000049991798719,0.027754872559823354,0.03694960315530623,0
247,0.009880000000000111,5.000049991798719,0.030713981113518377,0.039981047427566654,0
248,0.009919999999999929,4.99972120164681,0.03696098809372539,0.04630032608895529,0
249,0.009959999999999969,5.000378781950543,0.04353678496405114,0.052948329973530564,0
250,0.010000000000000009,4.99972120164681,0.05274290066682373,0.062226587394410546,0
251,0.010040000000000049,5.000378781950543,0.060962646912913254,0.07051840943360091,0
252,0.010080000000000089,4.99972120164681,0.05997627735926084,0.06960404911953119,0
253,0.010119999999999907,4.99972120164681,0.06030506721035353,0.0700047810285369,0
254,0.010159999999999947,5.000049991798719,0.059647487508292976,0.0694190755749356,0
255,0.010199999999999987,5.000049991798719,0.06392175558060653,0.0737651494588453,0
256,0.010240000000000027,4.99972120164681,0.07214150193269635,0.08205663255864087,0
257,0.010280000000000067,5.000049991798719,0.08825220500793643,0.0982390026910585,0
258,0.010320000000000107,4.99972120164681,0.09384163267489809,0.10390002709842824,0
259,0.010359999999999925,5.000049991798719,0.10304774890994019,0.11317766913127165,0
260,0.010399999999999965,4.99972120164681,0.1033765387772625,0.11357791322836233,0
261,0.010440000000000005,4.99972120164681,0.1033765387772625,0.1136492952650899,0
262,0.010480000000000045,5.000049991798719,0.10830838680184553,0.1186524525087772,0
263,0.010520000000000085,5.000378781950543,0.11192507537076382,0.12234037685502637,0
264,0.010559999999999903,5.000049991798719,0.11652813357084088,0.12701459676695043,0
265,0.010599999999999943,5.000049991798719,0.12441909054105722,0.13497664076026605,0
266,0.010639999999999983,5.000049991798719,0.1270494095467647,0.13767797147751537,0
267,0.010680000000000023,5.000049991798719,0.13494036661069325,0.14563986431907988,0
268,0.010720000000000063,4.99972120164681,0.13592673624861432,0.14669709317885127,0
269,0.010760000000000103,5.000049991798719,0.1369131058876297,0.14775424486252758,0
270,0.01079999999999992,5.000049991798719,0.14381769339134592,0.1547295366127949,0
271,0.01083999999999996,5.000049991798719,0.1444752731563955,0.15545774220585584,0
272,0.01088,5.000378781950543,0.15105107083354244,0.1621040866725424,0
273,0.01092000000000004,5.000049991798719,0.1566404988971596,0.16776398186780067,0
274,0.01096000000000008,5.000049991798719,0.15762686855906824,0.1688207383845375,0
275,0.010999999999999899,5.000378781950543,0.16321629666371967,0.1744804724488093,0
276,0.011039999999999939,5.000049991798719,0.16486024611289096,0.17619464634452456,0
277,0.011079999999999979,4.99972120164681,0.17176483383224878,0.18316937638001513,0
278,0.011120000000000019,4.999392411494816,0.17275120351076823,0.1842258056274626,0
279,0.011160000000000059,5.000049991798719,0.1753815226587669,0.18692610098093973,0
280,0.011200000000000099,5.000378781950543,0.18261490035531364,0.1942293709038265,0
281,0.011239999999999917,5.000378781950543,0.18754674881797762,0.19923102699856649,0
282,0.011279999999999957,4.99972120164681,0.18820432861503028,0.19995832921887585,0
283,0.011319999999999997,5.000378781950543,0.1924785973075063,0.20430223451181131,0
284,0.011360000000000037,5.000378781950543,0.19773923572589475,0.2096324230944685,0
285,0.011400000000000077,4.99972120164681,0.19905439533525277,0.2110170458191025,0
286,0.011439999999999895,4.99972120164681,0.20299987417473864,0.21503190011266807,0
287,0.011479999999999935,4.99972120164681,0.21187720162606338,0.22397851474527808,0
288,0.011519999999999975,5.000049991798719,0.20365745398298266,0.21582796539970278,0
289,0.011560000000000015,5.000378781950543,0.19412254680997768,0.20636216703005783,0
290,0.011600000000000055,4.999392411494816,0.19182101750735198,0.2041296564269086,0
291,0.011640000000000095,5.000049991798719,0.1983968155303359,0.21077438243638164,0
292,0.011679999999999913,5.000049991798719,0.20201350446326316,0.2144599080343486,0
293,0.011719999999999953,5.000049991798719,0.20530140350567,0.21781655181253312,0
294,0.011759999999999993,5.000378781950543,0.20826051265398074,0.22084431316020317,0
295,0.011800000000000033,4.99972120164681,0.20727414293680996,0.21992650249948031,0
296,0.011840000000000073,5.000049991798719,0.20858930255994138,0.2213101274303254,0
297,0.011880000000000113,4.999392411494816,0.20826051265398074,0.22104970847819866,0
298,0.01191999999999993,5.000049991798719,0.20036955494651332,0.21322702676622338,0
299,0.01195999999999997,5.000049991798719,0.19642407611844023,0.20934972837152926,0
300,0.01200000000000001,5.000049991798719,0.1983968155303359,0.21139055205161644,0
301,0.01204000000000005,4.99972120164681,0.20036955494651332,0.21343127896842756,0
302,0.01208000000000009,5.000378781950543,0.1983968155303359,0.21152642968366658,0
303,0.012119999999999909,4.999392411494816,0.19478012661180016,0.20797753292638865,0
304,0.012159999999999949,5.000378781950543,0.19149222760745366,0.20475732751292522,0
305,0.012199999999999989,5.000378781950543,0.19116343770767452,0.20449613203417072,0
306,0.012240000000000029,5.000049991798719,0.18491642963454402,0.1983166186134624,0
307,0.012280000000000069,4.99972120164681,0.18360127004569501,0.1970688533104356,0
308,0.012320000000000109,4.99972120164681,0.17768305191956152,0.1912179285062806,0
309,0.012359999999999927,4.999392411494816,0.1740663630838078,0.1876684314321787,0
310,0.012399999999999967,5.000378781950543,0.17110725404716948,0.18477641200115072,0
311,0.012440000000000007,5.000049991798719,0.16453145622281592,0.17826760103142616,0
312,0.012480000000000047,5.000049991798719,0.16124355732868845,0.17504658564678852,0
313,0.012520000000000087,5.000049991798719,0.1592708179979958,0.17314062588707788,0
314,0.012559999999999905,5.000049991798719,0.1474343821051176,0.1613708650341015,0
315,0.012599999999999945,5.000049991798719,0.14283132374468102,0.15683437659071708,0
316,0.012639999999999985,5.000707572102282,0.1398722148112378,0.15394173186051663,0
317,0.012680000000000025,4.99972120164681,0.13724189576754459,0.15137777071611347,0
318,0.012720000000000065,5.000049991798719,0.12935093868316216,0.14355306463774856,0
319,0.012760000000000105,5.000378781950543,0.1250766702917519,0.13934493977059398,0
320,0.012799999999999923,4.99972120164681,0.12047361204714746,0.13480791698083158,0
321,0.012839999999999963,5.000378781950543,0.11455539433929632,0.12895562607160144,0
322,0.012880000000000003,5.000378781950543,0.10896596654054455,0.12343201582929335,0
323,0.012920000000000043,5.000378781950543,0.09844469078034762,0.11297644779826443,0
324,0.012960000000000083,5.000049991798719,0.0971295313191825,0.11172688565475818,0
325,0.0129999999999999,4.99972120164681,0.0902249441804355,0.1048877848387992,0
326,0.01303999999999994,4.99972120164681,0.08200519765772811,0.09673341306152601,0
327,0.01307999999999998,5.000049991798719,0.0760869802093063,0.09088045819958707,0
328,0.01312000000000002,5.000378781950543,0.07247029178839723,0.08732891962550433,0
329,0.01316000000000006,4.99972120164681,0.0672096541121064,0.08213331847657745,0
330,0.0132000000000001,5.000378781950543,0.06030506721035353,0.07529365420382639,0
331,0.013239999999999919,4.99972120164681,0.05372927021222988,0.06878266535835575,0
332,0.013279999999999959,5.000049991798719,0.045509524034943585,0.06062761228030689,0
333,0.013319999999999999,5.000049991798719,0.04024888652260587,0.05543155223765067,0
334,0.013360000000000039,5.000049991798719,0.03860493730659416,0.053852064286557325,0
335,0.013400000000000079,5.000378781950543,0.028412452237539368,0.04372392370339043,0
336,0.013439999999999896,4.999392411494816,0.022823024993048696,0.03819872359243652,0
337,0.013479999999999936,4.999392411494816,0.02315181482994949,0.038591622638155854,0
338,0.013519999999999976,5.000049991798719,0.015918438447348998,0.03142223696824903,0
339,0.013560000000000016,4.99972120164681,0.009671431620803153,0.025239101787832507,0
340,0.013600000000000056,5.000378781950543,0.003753214669504526,0.019384636846633232,0
341,0.013640000000000096,4.99972120164681,-0.0028225818947114484,0.012872472088001685,0
342,0.013679999999999914,5.000378781950543,-0.007425639459330238,0.008332925556955084,0
343,0.013719999999999954,4.99972120164681,-0.014330225759327644,0.0014917289520147564,0
344,0.013759999999999994,5.000378781950543,-0.01860449344057817,-0.0027192709381956004,0
345,0.013800000000000034,5.000049991798719,-0.01926207308192608,-0.003313705257014299,0
346,0.013840000000000074,5.000049991798719,-0.023536340738185738,-0.007524950622735185,0
347,0.013879999999999892,5.000707572102282,-0.028468188006913683,-0.01239389919537337,0
348,0.013919999999999932,4.999392411494816,-0.0340576148765004,-0.017920551524750153,0
349,0.013959999999999972,4.99972120164681,-0.039975831521371616,-0.02377611834568799,0
350,0.014000000000000012,4.99972120164681,-0.04293493982813261,-0.02667270210414799,0
351,0.014040000000000052,5.000707572102282,-0.047537997173404054,-0.031213360735058898,0
352,0.014080000000000092,5.000049991798719,-0.05542895256342596,-0.03904204380191445,0
353,0.01411999999999991,4.99972120164681,-0.05707290159361651,-0.04062384745632555,0
354,0.01415999999999995,5.000378781950543,-0.05707290159361651,-0.040561829583058095,0
355,0.01419999999999999,5.000049991798719,-0.06397748748496758,-0.04740452565770448,0
356,0.01424000000000003,5.000049991798719,-0.06529264669586828,-0.048657923661432956,0
357,0.01428000000000007,4.99972120164681,-0.07285481211811588,-0.056158457037922604,0
358,0.01432000000000011,4.99972120164681,-0.07581392030804664,-0.059056062894296935,0
359,0.014359999999999928,5.000049991798719,-0.08074576726775658,-0.06392653778233792,0
360,0.014399999999999968,5.000378781950543,-0.08304729583888733,-0.06616682509226512,0
361,0.014440000000000008,4.999392411494816,-0.08502003460903816,-0.0680784539591415,0
362,0.014480000000000048,4.99972120164681,-0.08765035296190492,-0.07064779431300525,0
363,0.014520000000000088,5.000049991798719,-0.09093825089119083,-0.07387484669277453,0
364,0.014559999999999906,5.000049991798719,-0.09521251817964406,-0.07808840142527862,0
365,0.014599999999999946,4.99972120164681,-0.09422614880735543,-0.07704145303354928,0
366,0.014639999999999986,5.000049991798719,-0.09882920586791545,-0.08158406515297095,0
367,0.014680000000000026,4.999063621342738,-0.10113073438852911,-0.08382528335138881,0
368,0.014720000000000066,4.99972120164681,-0.10343226290269213,-0.08606663670177889,0
369,0.014760000000000106,4.99972120164681,-0.10376105268990284,-0.08633538702195315,0
370,0.014799999999999924,5.000049991798719,-0.10869289948224485,-0.09120733058113603,0
371,0.014839999999999964,4.99972120164681,-0.11263837689474214,-0.09509304153031267,0
372,0.014880000000000004,4.99972120164681,-0.11230958711109378,-0.0947046225879572,0
373,0.014920000000000044,5.000049991798719,-0.11395353602801415,-0.0962890801843666,0
374,0.014960000000000084,5.000049991798719,-0.11658385428821218,-0.09886004549463331,0
375,0.014999999999999902,5.001036362253937,-0.11526869515917111,-0.09748567231741859,0
376,0.015039999999999942,5.000049991798719,-0.11592627472395621,-0.09808417726575364,0
377,0.015079999999999982,4.99972120164681,-0.11757022363360382,-0.0996691915194223,0
378,0.015120000000000022,4.999392411494816,-0.12546117835382642,-0.10750135207165962,0
379,0.015160000000000062,5.000049991798719,-0.12348843968092783,-0.10546996024506092,0
380,0.015200000000000102,5.000378781950543,-0.12283086012223408,-0.1047538690720067,0
381,0.01523999999999992,4.999392411494816,-0.12414601923909123,-0.10601065863765391,0
382,0.01527999999999996,5.001693942556992,-0.12578996813217858,-0.10759638056524251,0
383,0.01532,5.003666683464122,-0.1267763374664388,-0.1085246660410191,0
384,0.01536000000000004,4.999063621342738,-0.12315964990164728,-0.10485003824479955,0
385,0.01540000000000008,5.000378781950543,-0.12480359879672413,-0.1064361910542746,0
386,0.015439999999999898,4.99972120164681,-0.12184449078319924,-0.103419431618468,0
387,0.015479999999999938,5.002351522859708,-0.12414601923909123,-0.10566345383160944,0
388,0.015519999999999978,5.002022732708393,-0.12546117835382642,-0.10692125239804637,0
389,0.015560000000000018,5.002351522859708,-0.12578996813217858,-0.10719282783617756,0
390,0.015600000000000058,5.000049991798719,-0.12743391702194856,-0.10877970910612642,0
391,0.0156400000000001,5.000378781950543,-0.12447480901797399,-0.10576368071374434,0
392,0.015679999999999916,4.99972120164681,-0.12480359879672413,-0.10603569784519898,0
393,0.015719999999999956,4.99972120164681,-0.12743391702194856,-0.10860939167261685,0
394,0.015759999999999996,5.000049991798719,-0.126118757910398,-0.10723775691979798,0
395,0.015800000000000036,5.000049991798719,-0.12052933166263081,-0.10159200429301637,0
396,0.015840000000000076,4.999392411494816,-0.12052933166263081,-0.1015358276806323,0
397,0.015879999999999894,4.99972120164681,-0.12283086012223408,-0.10378132979751281,0
398,0.015919999999999934,4.99972120164681,-0.12480359879672413,-0.10569819290062066,0
399,0.015959999999999974,4.99972120164681,-0.12118691122318002,-0.10202578102735604,0
400,0.016000000000000014,5.000049991798719,-0.12348843968092783,-0.10427173695600205,0
401,0.016040000000000054,5.000049991798719,-0.12480359879672413,-0.10553147581090186,0
402,0.016080000000000094,4.99972120164681,-0.12283086012223408,-0.10350346963993032,0
403,0.016119999999999912,5.000049991798719,-0.12184449078319924,-0.10246198606365575,0
404,0.016159999999999952,4.99972120164681,-0.11987175210155175,-0.1004342868974479,0
405,0.016199999999999992,4.99972120164681,-0.11789901341513638,-0.09840674197119367,0
406,0.016240000000000032,4.99972120164681,-0.12151570100325589,-0.10196877805483656,0
407,0.016280000000000072,4.99972120164681,-0.11954296232081356,-0.09994154309251335,0
408,0.016320000000000112,4.99972120164681,-0.12118691122318002,-0.10153115142741495,0
409,0.01635999999999993,5.000707572102282,-0.12052933166263081,-0.10081938749821803,0
410,0.01639999999999997,4.99972120164681,-0.11855659297780442,-0.09879262112853708,0
411,0.01644000000000001,4.99972120164681,-0.11691264407014172,-0.09709480170335753,0
412,0.01648000000000005,4.99972120164681,-0.11921417253994292,-0.09934261730508681,0
413,0.01652000000000009,4.99972120164681,-0.11296716667825839,-0.09304205670543912,0
414,0.016559999999999908,5.000049991798719,-0.11132321775935598,-0.09134471165789702,0
415,0.016599999999999948,4.99972120164681,-0.11724143385193893,-0.09720969070892362,0
416,0.016639999999999988,4.99972120164681,-0.1136247462448944,-0.0935399256237049,0
417,0.016680000000000028,5.000378781950543,-0.11658385428821218,-0.09644611622706256,0
418,0.016720000000000068,4.99972120164681,-0.1136247462448944,-0.09343425125535774,0
419,0.016760000000000108,4.999392411494816,-0.11230958711109378,-0.09206649617662307,0
420,0.016799999999999926,4.999392411494816,-0.1106656381908704,-0.09037011276531352,0
421,0.016839999999999966,4.99972120164681,-0.10935047905231472,-0.08900268105842335,0
422,0.016880000000000006,5.000378781950543,-0.11230958711109378,-0.09190967893902645,0
423,0.016920000000000046,5.000049991798719,-0.10704895055476103,-0.08659709506058008,0
424,0.016960000000000086,4.99972120164681,-0.10935047905231472,-0.08884683955647725,0
425,0.016999999999999904,4.99972120164681,-0.10704895055476103,-0.08649369084060421,0
426,0.017039999999999944,4.99972120164681,-0.10540500162397977,-0.08479828593620012,0
427,0.017079999999999984,5.000049991798719,-0.10343226290269213,-0.08277425594581905,0
428,0.017120000000000024,5.000049991798719,-0.1027746833278755,-0.08206555026473883,0
429,0.017160000000000064,5.000049991798719,-0.09882920586791545,-0.07806911231810731,0
430,0.017200000000000104,5.000049991798719,-0.0998155752346823,-0.07900468727301305,0
431,0.017239999999999922,4.999392411494816,-0.10408984247698179,-0.08322832663193036,0
432,0.017279999999999962,4.99972120164681,-0.10047315481186896,-0.07956117806402749,0
433,0.017320000000000002,5.000378781950543,-0.10080194460026483,-0.07983967438077741,0
434,0.017360000000000042,5.000049991798719,-0.09915799565696932,-0.0781455998459653,0
435,0.017400000000000082,4.99972120164681,-0.09817162628941313,-0.07710927321443455,0
436,0.0174399999999999,5.000378781950543,-0.09685646713083039,-0.0757443255652539,0
437,0.01747999999999994,5.000049991798719,-0.09652767734085597,-0.075365916502309,0
438,0.01751999999999998,5.000049991798719,-0.09652767734085597,-0.07531646688962733,0
439,0.01756000000000002,5.000049991798719,-0.09356856922517286,-0.0723080792626177,0
440,0.01760000000000006,5.000378781950543,-0.09685646713083039,-0.07554686819776965,0
441,0.0176400000000001,5.000049991798719,-0.09554130797014417,-0.07418277104525839,0
442,0.017679999999999918,5.000049991798719,-0.09817162628941313,-0.07676432278763076,0
443,0.017719999999999958,5.000378781950543,-0.09587009776051285,-0.07441419953139282,0
444,0.017759999999999998,5.000707572102282,-0.0998155752346823,-0.07831125456079119,0
445,0.017800000000000038,4.99972120164681,-0.09850041607873007,-0.07694784567401387,0
446,0.017840000000000078,4.99972120164681,-0.09948678544589158,-0.07788613845404213,0
447,0.017879999999999896,5.000378781950543,-0.1024458935402696,-0.08079734353308526,0
448,0.017919999999999936,4.99972120164681,-0.1027746833278755,-0.08107840430361632,0
449,0.017959999999999976,5.000707572102282,-0.10573379141039972,-0.08398995779213701,0
450,0.018000000000000016,5.000378781950543,-0.10408984247698179,-0.08229862911094232,0
451,0.018040000000000056,5.000049991798719,-0.10441863226392899,-0.08258021441783364,0
452,0.018080000000000096,5.000049991798719,-0.10737774034052165,-0.08549229370191855,0
453,0.018119999999999914,4.999392411494816,-0.10672016076886852,-0.08478786144346065,0
454,0.018159999999999954,5.000378781950543,-0.10869289948224485,-0.0867139239922123,0
455,0.018199999999999994,4.99972120164681,-0.10869289948224485,-0.08666742476456181,0
456,0.018240000000000034,4.99972120164681,-0.10737774034052165,-0.08530594374526806,0
457,0.018280000000000074,5.000378781950543,-0.10869289948224485,-0.08657495877091247,0
458,0.018320000000000114,5.000378781950543,-0.11263837689474214,-0.09047447023853519,0
459,0.018359999999999932,5.000707572102282,-0.11757022363360382,-0.09536052961173455,0
460,0.018399999999999972,5.000049991798719,-0.11559748494162976,-0.09334218253960859,0
461,0.018440000000000012,5.000378781950543,-0.11198079732731327,-0.08968006593523369,0
462,0.018480000000000052,5.000049991798719,-0.10441863226392899,-0.0820726516747472,0
463,0.018520000000000092,5.000049991798719,-0.1027746833278755,-0.08038363373568477,0
464,0.01855999999999991,5.000378781950543,-0.10672016076886852,-0.08428422276716858,0
465,0.01859999999999995,5.000378781950543,-0.10935047905231472,-0.08686983363227598,0
466,0.01863999999999999,4.99972120164681,-0.1136247462448944,-0.091099574793617,0
467,0.01868000000000003,4.99972120164681,-0.11987175210155175,-0.0973022364003194,0
468,0.01872000000000007,4.99972120164681,-0.11757022363360382,-0.09495654585613254,0
469,0.01876000000000011,5.000049991798719,-0.11559748494162976,-0.09293982765231129,0
470,0.018799999999999928,5.000049991798719,-0.11132321775935598,-0.08862176391149637,0
471,0.018839999999999968,5.000049991798719,-0.1116520075434007,-0.08890694047745365,0
472,0.018880000000000008,5.000049991798719,-0.11263837689474214,-0.08984988033653737,0
473,0.018920000000000048,4.99972120164681,-0.11263837689474214,-0.08980663495370858,0
474,0.018960000000000088,5.000707572102282,-0.11658385428821218,-0.09370905145559599,0
475,0.018999999999999906,4.99972120164681,-0.11789901341513638,-0.09498133456221389,0
476,0.019039999999999946,5.000378781950543,-0.11724143385193893,-0.09428106422822434,0
477,0.019079999999999986,4.99972120164681,-0.11461111559385707,-0.09160824082530522,0
478,0.019120000000000026,5.000707572102282,-0.11691264407014172,-0.09386745015734586,0
479,0.019160000000000066,5.000049991798719,-0.11757022363360382,-0.09448289694998865,0
480,0.019200000000000106,5.000049991798719,-0.11526869515917111,-0.09213942244918079,0
481,0.019239999999999924,5.000049991798719,-0.11559748494162976,-0.09242645331891118,0
482,0.019279999999999964,5.000378781950543,-0.12052933166263081,-0.09731672860821204,0
483,0.019320000000000004,4.99972120164681,-0.1182278031965366,-0.09497381655700057,0
484,0.019360000000000044,5.000049991798719,-0.12250207034268835,-0.09920688832834203,0
485,0.019400000000000084,5.000049991798719,-0.12052933166263081,-0.09719314284566946,0
486,0.019439999999999902,5.000378781950543,-0.11954296232081356,-0.09616595563348014,0
487,0.019479999999999942,4.999392411494816,-0.12151570100325589,-0.09809806573599572,0
488,0.019519999999999982,5.000049991798719,-0.12020054188215752,-0.09674246768176818,0
489,0.019560000000000022,5.000049991798719,-0.12217328056301004,-0.0986749574307864,0
490,0.019600000000000062,5.000049991798719,-0.12118691122318002,-0.09764852951305482,0
491,0.019640000000000102,5.000049991798719,-0.12480359879672413,-0.10122534921340348,0
492,0.01967999999999992,4.999392411494816,-0.12447480901797399,-0.10085688261506853,0
493,0.01971999999999996,5.000049991798719,-0.12842028635421754,-0.10476287453236886,0
494,0.01976,4.99972120164681,-0.1251323885753416,-0.10143568308034413,0
495,0.01980000000000004,5.000378781950543,-0.12644754768848476,-0.10271174060940287,0
496,0.01984000000000008,5.000049991798719,-0.12217328056301004,-0.09839856433029029,0
497,0.019879999999999898,5.000378781950543,-0.11954296232081356,-0.09572952970439255,0
498,0.019919999999999938,4.99972120164681,-0.11493990537658023,-0.09108794948398785,0
499,0.019959999999999978,4.999392411494816,-0.11757022363360382,-0.09367993790806187,0
500,0.020000000000000018,5.000049991798719,-0.12118691122318002,-0.09725848944169642,0
501,0.020040000000000058,5.000378781950543,-0.12447480901797399,-0.10050844528943252,0
502,0.020080000000000098,4.999392411494816,-0.12710512724426004,-0.10310101600750554,0
503,0.020119999999999916,5.000049991798719,-0.13039302501516953,-0.10635136103708856,0
504,0.020159999999999956,4.99972120164681,-0.12940665568529136,-0.10532763405888845,0
505,0.020199999999999996,4.99972120164681,-0.13137939434385165,-0.10726321048632122,0
506,0.020240000000000036,4.99972120164681,-0.1277627067995044,-0.10360955645029829,0
507,0.020280000000000076,5.000378781950543,-0.12743391702194856,-0.10324399624083944,0
508,0.020319999999999894,4.99972120164681,-0.12447480901797399,-0.10024831418311438,0
509,0.020359999999999934,4.99972120164681,-0.1267763374664388,-0.10251346527241552,0
510,0.020399999999999974,5.000378781950543,-0.1267763374664388,-0.10247728492232343,0
511,0.020440000000000014,5.000049991798719,-0.13269455344690018,-0.1083595178742951,0
512,0.020480000000000054,5.000049991798719,-0.13006423523867633,-0.10569341426975679,0
513,0.020520000000000094,4.99972120164681,-0.1330233432223299,-0.10861693479788209,0
514,0.02055999999999991,4.99972120164681,-0.13072181479152978,-0.10628001715898501,0
515,0.02059999999999995,4.99972120164681,-0.1290778659083996,-0.10460087761986409,0
516,0.02063999999999999,5.000049991798719,-0.1290778659083996,-0.10456588581868036,0
517,0.02068000000000003,5.000049991798719,-0.13170818411981328,-0.10716141138443995,0
518,0.02072000000000007,5.000378781950543,-0.13466729209748313,-0.11008592617072549,0
519,0.02076000000000011,4.99972120164681,-0.13006423523867633,-0.1054484758715577,0
520,0.02079999999999993,5.000049991798719,-0.13466729209748313,-0.11001733933578947,0
521,0.02083999999999997,5.000049991798719,-0.1376264000643745,-0.11294245424665941,0
522,0.02088000000000001,4.99972120164681,-0.13565366142097834,-0.11093592317656434,0
523,0.02092000000000005,5.000049991798719,-0.1330233432223299,-0.10827201346930534,0
524,0.02096000000000009,5.000049991798719,-0.1330233432223299,-0.10823862316554235,0
525,0.020999999999999908,5.000707572102282,-0.13532487164661305,-0.11050696277565838,0
526,0.021039999999999948,4.999392411494816,-0.1333521329976266,-0.10850123708483415,0
527,0.021079999999999988,5.000049991798719,-0.1349960818721146,-0.11011240097052853,0
528,0.021120000000000028,4.999063621342738,-0.13203697389564184,-0.10712071033699869,0
529,0.021160000000000068,5.000049991798719,-0.13664003074327558,-0.11169138713597782,0
530,0.021200000000000108,4.999063621342738,-0.13433850232271854,-0.10935768154980469,0
531,0.021239999999999926,5.000049991798719,-0.13269455344690018,-0.1076817586640109,0
532,0.021279999999999966,4.99972120164681,-0.13269455344690018,-0.10764998808024086,0
533,0.021320000000000006,5.000049991798719,-0.137297610290808,-0.11222147803510747,0
534,0.021360000000000046,4.99972120164681,-0.13039302501516953,-0.10528552983163521,0
535,0.021400000000000086,5.000049991798719,-0.13072181479152978,-0.10558316090579895,0
536,0.021439999999999904,4.999392411494816,-0.13631124096930963,-0.11114163286939692,0
537,0.021479999999999944,5.000378781950543,-0.13631124096930963,-0.11111088340355083,0
538,0.021519999999999984,5.000378781950543,-0.13006423523867633,-0.10483333321366872,0
539,0.021560000000000024,4.999392411494816,-0.1310506045677572,-0.10578936334629614,0
540,0.021600000000000064,4.99972120164681,-0.1333521329976266,-0.10806075809663843,0
541,0.021640000000000104,4.99972120164681,-0.13400971254782096,-0.10868840973629249,0
542,0.02167999999999992,5.000049991798719,-0.13532487164661305,-0.1099738469435175,0
543,0.02171999999999996,5.000049991798719,-0.1349960818721146,-0.109615541544334,0
544,0.02176,5.000049991798719,-0.1297354454620503,-0.10432559602229424,0
545,0.02180000000000004,4.99972120164681,-0.12940665568529136,-0.10396770389001217,0
546,0.02184000000000008,5.000378781950543,-0.1323657636713375,-0.10689791651864242,0
547,0.0218799999999999,5.000049991798719,-0.1369688205171084,-0.11147228524466815,0
548,0.02191999999999994,5.000378781950543,-0.13598245119521052,-0.11045743527816453,0
549,0.02195999999999998,5.000049991798719,-0.13466729209748313,-0.10911400324634145,0
550,0.02200000000000002,4.99972120164681,-0.13631124096930963,-0.11072988712785128,0
551,0.02204000000000006,5.000049991798719,-0.13466729209748313,-0.10905808144065128,0
552,0.0220800000000001,5.000378781950543,-0.1310506045677572,-0.10541374549955101,0
553,0.022119999999999918,4.99972120164681,-0.1290778659083996,-0.10341356705976251,0
554,0.022159999999999958,5.000049991798719,-0.13433850232271854,-0.10864697254942327,0
555,0.022199999999999998,5.000049991798719,-0.13828397961110772,-0.11256542799163809,0
556,0.022240000000000038,4.999392411494816,-0.13203697389564184,-0.10629160972907155,0
557,0.022280000000000078,5.000378781950543,-0.13466729209748313,-0.10889532490135109,0
558,0.022319999999999895,5.000378781950543,-0.1369688205171084,-0.11117046002529113,0
559,0.022359999999999935,4.99972120164681,-0.1336809227727903,-0.10785637893337095,0
560,0.022399999999999975,4.99972120164681,-0.1323657636713375,-0.10651524664447187,0
561,0.022440000000000015,4.99972120164681,-0.13664003074327558,-0.11076375089905541,0
562,0.022480000000000055,5.000049991798719,-0.13466729209748313,-0.10876546001379625,0
563,0.022520000000000095,4.99972120164681,-0.13466729209748313,-0.10874011855787061,0
564,0.022559999999999913,4.99972120164681,-0.13532487164661305,-0.10937256763812353,0
565,0.022599999999999953,4.99972120164681,-0.13828397961110772,-0.11230675632214895,0
566,0.022639999999999993,4.99972120164681,-0.13466729209748313,-0.10866536091567089,0
567,0.022680000000000033,4.999392411494816,-0.1379551898378077,-0.11192876234781153,0
568,0.022720000000000073,5.000049991798719,-0.1333521329976266,-0.10730142097901303,0
569,0.022760000000000113,4.99972120164681,-0.13532487164661305,-0.10925008707168544,0
570,0.02279999999999993,5.000049991798719,-0.1392703489302085,-0.11317170396184403,0
571,0.02283999999999997,4.99972120164681,-0.13992792847560936,-0.1138056354650927,0
572,0.02288000000000001,4.99972120164681,-0.13992792847560936,-0.11378219996046371,0
573,0.02292000000000005,5.001036362253937,-0.14255824665188005,-0.11638929535369545,0
574,0.02296000000000009,5.000049991798719,-0.14222945688031302,-0.11603749570257202,0
575,0.02299999999999991,4.999392411494816,-0.137297610290808,-0.1110828523167085,0
576,0.02303999999999995,4.99972120164681,-0.14091429779271097,-0.11467695628298652,0
577,0.02307999999999999,4.99972120164681,-0.1392703489302085,-0.11301063732094566,0
578,0.02312000000000003,5.000049991798719,-0.13598245119521052,-0.10970058309566363,0
579,0.02316000000000007,5.000049991798719,-0.13992792847560936,-0.11362411766601269,0
580,0.02320000000000011,4.999392411494816,-0.13959913870297558,-0.1132735991323526,0
581,0.023239999999999927,5.000378781950543,-0.1405855080204771,-0.11423845380444757,0
582,0.023279999999999967,5.000049991798719,-0.13894155915730816,-0.11257320457589219,0
583,0.023320000000000007,5.000049991798719,-0.13861276938427458,-0.11222332887969436,0
584,0.023360000000000047,4.999392411494816,-0.13664003074327558,-0.11022971891775467,0
585,0.023400000000000087,5.000049991798719,-0.1376264000643745,-0.11119543167793465,0
586,0.023439999999999905,4.99972120164681,-0.13269455344690018,-0.10624314341515578,0
587,0.023479999999999945,5.000049991798719,-0.13203697389564184,-0.10556533728759211,0
588,0.023519999999999985,5.000049991798719,-0.13137939434385165,-0.10488774637967062,0
589,0.023560000000000025,4.99972120164681,-0.13400971254782096,-0.10749826859664502,0
590,0.023600000000000065,5.001365152405508,-0.1323657636713375,-0.10583473924905079,0
591,0.023640000000000105,4.9970908804284875,-0.12940665568529136,-0.10285626645230901,0
592,0.023679999999999923,4.998406041038327,-0.13598245119521052,-0.10941291295425977,0
593,0.023719999999999963,4.999392411494816,-0.1290778659083996,-0.10248939460229846,0
594,0.023760000000000003,5.001036362253937,-0.12809149657692737,-0.10148430828636129,0
595,0.023800000000000043,4.997419670581074,-0.12809149657692737,-0.10146580751822384,0
596,0.023840000000000083,4.99972120164681,-0.126118757910398,-0.09947478443329882,0
597,0.0238799999999999,4.999063621342738,-0.13269455344690018,-0.10603251203233169,0
598,0.02391999999999994,4.99972120164681,-0.1310506045677572,-0.10437071182559858,0
599,0.02395999999999998,5.000707572102282,-0.13039302501516953,-0.10369549768201884,0
600,0.02400000000000002,4.998734831190575,-0.13137939434385165,-0.10466444928079016,0
601,0.02404000000000006,4.99972120164681,-0.13137939434385165,-0.10464724853420618,0
602,0.0240800000000001,5.000049991798719,-0.13400971254782096,-0.10726058309492419,0
603,0.02411999999999992,5.000378781950543,-0.13269455344690018,-0.10592865757184866,0
604,0.02415999999999996,4.99972120164681,-0.13466729209748313,-0.1078848471368934,0
605,0.0242,4.99972120164681,-0.13400971254782096,-0.10721093595158371,0
606,0.02424000000000004,4.99972120164681,-0.13137939434385165,-0.10456450367288393,0
607,0.02428000000000008,5.000049991798719,-0.1333521329976266,-0.1065213459216222,0
608,0.024319999999999897,4.99972120164681,-0.1336809227727903,-0.10683445706796807,0
609,0.024359999999999937,4.99972120164681,-0.13039302501516953,-0.10353109856202011,0
610,0.024399999999999977,5.000049991798719,-0.12809149657692737,-0.10121432735795839,0
611,0.024440000000000017,4.99972120164681,-0.13006423523867633,-0.10317204133615565,0
612,0.024480000000000057,5.000049991798719,-0.1333521329976266,-0.10644513259132402,0
613,0.024520000000000097,5.000049991798719,-0.1336809227727903,-0.10675933413771745,0
614,0.024559999999999915,4.99972120164681,-0.1376264000643745,-0.11069044156852303,0
615,0.024599999999999955,4.99972120164681,-0.13828397961110772,-0.11133386971318632,0
616,0.024639999999999995,5.000049991798719,-0.13861276938427458,-0.11164872663144423,0
617,0.024680000000000035,5.000378781950543,-0.14157187733677873,-0.11459412036238673,0
618,0.024720000000000075,5.000378781950543,-0.14584614436021137,-0.11885489188152357,0
619,0.024759999999999893,4.999392411494816,-0.1603128941180325,-0.1333083649339642,0
620,0.024799999999999933,5.000378781950543,-0.17740996167869222,-0.15039237466753755,0
621,0.024839999999999973,5.000049991798719,-0.14190066710861254,-0.11487024122577257,0
622,0.024880000000000013,4.99972120164681,-0.13006423523867633,-0.10302118951438553,0
623,0.024920000000000053,4.99972120164681,-0.1024458935402696,-0.07539044707732141,0
624,0.024960000000000093,4.999392411494816,-0.12348843968092783,-0.09642081165239871,0
625,0.02499999999999991,4.99972120164681,-0.12842028635421754,-0.1013406960011903,0
626,0.02503999999999995,4.99972120164681,-0.14749009320937,-0.12039875983865558,0
627,0.02507999999999999,5.000378781950543,-0.14222945688031302,-0.11512659986217122,0
628,0.02512000000000003,5.000378781950543,-0.14288703642331374,-0.11577287518917255,0
629,0.02516000000000007,4.99972120164681,-0.14650372390027555,-0.11937847794044905,0
630,0.02520000000000011,5.000049991798719,-0.1517643602015455,-0.12462824906295031,0
631,0.02523999999999993,5.000049991798719,-0.15406588857258413,-0.12691913185645476,0
632,0.02527999999999997,4.999392411494816,-0.15373709880569447,-0.12657991616529712,0
633,0.02532000000000001,4.99972120164681,-0.14617493413031024,-0.11900754526865567,0
634,0.02536000000000005,5.000049991798719,-0.15143557043371902,-0.124258195101274,0
635,0.02540000000000009,4.99972120164681,-0.14617493413031024,-0.11898779212270758,0
636,0.025439999999999907,5.000049991798719,-0.11263837689474214,-0.08544168805048966,0
637,0.025479999999999947,5.000378781950543,-0.10902168926734575,-0.08181567346553399,0
638,0.025519999999999987,4.99972120164681,-0.1392703489302085,-0.11205522608821764,0
639,0.025560000000000027,5.000049991798719,-0.12842028635421754,-0.10119627642542312,0
640,0.025600000000000067,5.000378781950543,-0.148476462517262,-0.12124378548873971,0
641,0.025640000000000107,5.000049991798719,-0.14222945688031302,-0.11498833277054288,0
642,0.025679999999999925,4.999392411494816,-0.13039302501516953,-0.10314367387173892,0
643,0.025719999999999965,5.000049991798719,-0.1330233432223299,-0.10576598511963597,0
644,0.025760000000000005,5.000049991798719,-0.14288703642331374,-0.11562189146026496,0
645,0.025800000000000045,4.999063621342738,-0.14190066710861254,-0.11462795540632956,0
646,0.025840000000000085,5.000707572102282,-0.14255824665188005,-0.11527818835139607,0
647,0.025879999999999903,5.000049991798719,-0.148805252286292,-0.12151806754625223,0
648,0.025919999999999943,4.99972120164681,-0.14650372390027555,-0.11920963289463603,0
649,0.025959999999999983,5.000378781950543,-0.14650372390027555,-0.11920294681600133,0
650,0.026000000000000023,4.999392411494816,-0.1471613034398055,-0.11985406047456876,0
651,0.026040000000000063,5.000049991798719,-0.16261442246467878,-0.13530093382455632,0
652,0.026080000000000103,5.000049991798719,-0.14288703642331374,-0.11556752232048381,0
653,0.02611999999999992,4.99972120164681,-0.1310506045677572,-0.10372528521819578,0
654,0.02615999999999996,5.000049991798719,-0.13170818411981328,-0.10437727974099,0
655,0.0262,5.000378781950543,-0.12940665568529136,-0.10207038649386503,0
656,0.02624000000000004,4.99972120164681,-0.1277627067995044,-0.10042129300901818,0
657,0.02628000000000008,5.000049991798719,-0.11230958711109378,-0.08496324892966957,0
658,0.0263199999999999,4.99972120164681,-0.14124308756481152,-0.11389204519284422,0
659,0.02635999999999994,5.000049991798719,-0.14354461596578083,-0.11618908959363206,0
660,0.02639999999999998,4.99972120164681,-0.13565366142097834,-0.10829387122666982,0
661,0.02644000000000002,4.99972120164681,-0.13598245119521052,-0.108618617342117,0
662,0.02648000000000006,4.999392411494816,-0.1297354454620503,-0.10236778809659243,0
663,0.0265200000000001,5.000049991798719,-0.12842028635421754,-0.1010490256035543,0
664,0.026559999999999917,4.99972120164681,-0.13400971254782096,-0.10663506851754195,0
665,0.026599999999999957,4.99972120164681,-0.137297610290808,-0.10991980306262542,0
666,0.026639999999999997,4.99972120164681,-0.1369688205171084,-0.10958807014654859,0
667,0.026680000000000037,4.999392411494816,-0.14091429779271097,-0.11353082430680607,0
668,0.026720000000000077,5.000049991798719,-0.13565366142097834,-0.10826768481595826,0
669,0.026759999999999895,4.99972120164681,-0.14650372390027555,-0.11911546413925984,0
670,0.026799999999999935,5.000378781950543,-0.148476462517262,-0.12108613952795187,0
671,0.026839999999999975,4.99972120164681,-0.14387340573681423,-0.1164812394091843,0
672,0.026880000000000015,5.000049991798719,-0.13532487164661305,-0.10793108183060328,0
673,0.026920000000000055,5.000049991798719,-0.1336809227727903,-0.1062857292759976,0
674,0.026960000000000095,5.000049991798719,-0.13269455344690018,-0.10529817603226994,0
675,0.026999999999999913,4.99972120164681,-0.1323657636713375,-0.10496842205485542,0
676,0.027039999999999953,5.000049991798719,-0.1369688205171084,-0.10957073436549239,0
677,0.027079999999999993,5.000049991798719,-0.137297610290808,-0.1098989992192004,0
678,0.027120000000000033,5.000378781950543,-0.1379551898378077,-0.11055627340746747,0
679,0.027160000000000073,4.999392411494816,-0.14025671824810987,-0.11285771596410507,0
680,0.027200000000000113,5.000378781950543,-0.1376264000643745,-0.11022753137327479,0
681,0.02723999999999993,5.000049991798719,-0.1369688205171084,-0.10957030480467775,0
682,0.02727999999999997,5.000378781950543,-0.13400971254782096,-0.10661176913671062,0
683,0.02732000000000001,4.99972120164681,-0.13894155915730816,-0.1115444073047502,0
684,0.02736000000000005,4.999063621342738,-0.13631124096930963,-0.108915099864811,0
685,0.02740000000000009,5.000049991798719,-0.1376264000643745,-0.11023148882741174,0
686,0.02743999999999991,5.000049991798719,-0.13400971254782096,-0.10661625022553531,0
687,0.02747999999999995,5.000049991798719,-0.1290778659083996,-0.10168607147329256,0
688,0.02751999999999999,5.000378781950543,-0.16688868937670803,-0.13949878172433736,0
689,0.02756000000000003,5.000049991798719,-0.12414601923909123,-0.09675821718576698,0
690,0.02760000000000007,5.000049991798719,-0.1349960818721146,-0.10761060415259567,0
691,0.02764000000000011,5.000049991798719,-0.13532487164661305,-0.10794193691180444,0
692,0.027679999999999927,4.99972120164681,-0.13269455344690018,-0.10531438026155042,0
693,0.027719999999999967,5.000378781950543,-0.13170818411981328,-0.10433099096021281,0
694,0.027760000000000007,4.999392411494816,-0.1376264000643745,-0.11025240531605436,0
695,0.027800000000000047,5.000049991798719,-0.1392703489302085,-0.11189977088563975,0
696,0.027840000000000087,5.000049991798719,-0.13631124096930963,-0.10894429782560343,0
697,0.027879999999999905,5.000049991798719,-0.13631124096930963,-0.10894815082591795,0
698,0.027919999999999945,5.000049991798719,-0.13400971254782096,-0.1066506934042382,0
699,0.027959999999999985,5.000049991798719,-0.13433850232271854,-0.1069837720761838,0
700,0.028000000000000025,5.000707572102282,-0.13466729209748313,-0.10731706854068326,0
701,0.028040000000000065,4.999392411494816,-0.12874907613137498,-0.10140357695014834,0
702,0.028080000000000105,5.000378781950543,-0.12874907613137498,-0.1014085189024157,0
703,0.028119999999999923,5.000049991798719,-0.12940665568529136,-0.10207125787385447,0
704,0.028159999999999963,5.000049991798719,-0.13466729209748313,-0.1073372710550909,0
705,0.028200000000000003,5.000049991798719,-0.1471613034398055,-0.1198368764019546,0
706,0.028240000000000043,4.99972120164681,-0.15340830903867092,-0.1260896931225408,0
707,0.028280000000000083,5.000049991798719,-0.12085812144297166,-0.09354553364513371,0
708,0.0283199999999999,4.99972120164681,-0.12842028635421754,-0.10111394354834528,0
709,0.02835999999999994,5.000378781950543,-0.11592627472395621,-0.08862639365853663,0
710,0.02839999999999998,5.000378781950543,-0.11921417253994292,-0.09192096983598858,0
711,0.02844000000000002,5.000049991798719,-0.11526869515917111,-0.08798238730793384,0
712,0.02848000000000006,5.000049991798719,-0.11625506450615032,-0.08897586786683571,0
713,0.0285200000000001,5.000049991798719,-0.13039302501516953,-0.10312115581265276,0
714,0.02855999999999992,5.000378781950543,-0.12710512724426004,-0.099840801566803,0
715,0.02859999999999996,4.999063621342738,-0.11724143385193893,-0.08998486764890863,0
716,0.02864,5.000378781950543,-0.1182278031965366,-0.09097921227612514,0
717,0.02868000000000004,4.99972120164681,-0.11724143385193893,-0.09000103387888454,0
718,0.02872000000000008,5.000378781950543,-0.11625506450615032,-0.08902307099945982,0
719,0.028759999999999897,4.99972120164681,-0.12052933166263081,-0.09330595999330375,0
720,0.028799999999999937,5.000378781950543,-0.11559748494162976,-0.08838295033038385,0
721,0.028839999999999977,5.000378781950543,-0.11691264407014172,-0.08970716158513943,0
722,0.028880000000000017,5.000049991798719,-0.11592627472395621,-0.08873005927853311,0
723,0.028920000000000057,5.000378781950543,-0.1182278031965366,-0.09104106954693075,0
724,0.028960000000000097,4.99972120164681,-0.11691264407014172,-0.08973560681322466,0
725,0.028999999999999915,4.99972120164681,-0.11526869515917111,-0.0881015687301803,0
726,0.029039999999999955,4.99972120164681,-0.11428232581100171,-0.08712532448127477,0
727,0.029079999999999995,5.000049991798719,-0.11691264407014172,-0.08976598194485237,0
728,0.029120000000000035,5.000049991798719,-0.11757022363360382,-0.09043411464949928,0
729,0.029160000000000075,5.000049991798719,-0.11559748494162976,-0.08847214286476947,0
730,0.029200000000000115,5.000707572102282,-0.11461111559385707,-0.0874967540173531,0
731,0.029239999999999933,4.99972120164681,-0.11395353602801415,-0.086850368369773,0
732,0.029279999999999973,4.99972120164681,-0.11428232581100171,-0.08719056531146813,0
733,0.029320000000000013,5.000049991798719,-0.11296716667825839,-0.08588702639816079,0
734,0.029360000000000053,5.000378781950543,-0.11263837689474214,-0.08557006971283966,0
735,0.029400000000000093,5.000049991798719,-0.11230958711109378,-0.08525332572192525,0
736,0.02943999999999991,5.000378781950543,-0.10935047905231472,-0.0823064759639498,0
737,0.02947999999999995,5.000378781950543,-0.10639137098284411,-0.07935983851463585,0
738,0.02951999999999999,5.000378781950543,-0.1100080586218566,-0.08298920890219603,0
739,0.02956000000000003,4.99972120164681,-0.11395353602801415,-0.08694758099208685,0
740,0.02960000000000007,5.000049991798719,-0.11329595646164246,-0.08630310784918659,0
741,0.02964000000000011,5.000378781950543,-0.10967926883715166,-0.08269973819021832,0
742,0.02967999999999993,5.000378781950543,-0.1100080586218566,-0.08304205728257216,0
743,0.02971999999999997,5.000378781950543,-0.1116520075434007,-0.0846997466517312,0
744,0.02976000000000001,5.000049991798719,-0.10573379141039972,-0.07879548190191757,0
745,0.02980000000000005,5.000707572102282,-0.10672016076886852,-0.07979601337252108,0
746,0.02984000000000009,4.999392411494816,-0.10737774034052165,-0.08046796557640229,0
747,0.029879999999999907,5.000049991798719,-0.10606258119668784,-0.07916738937380892,0
748,0.029919999999999947,4.99972120164681,-0.10672016076886852,-0.07983976198293669,0
749,0.029959999999999987,5.000049991798719,-0.10376105268990284,-0.0768956568210965,0
750,0.030000000000000027,5.000378781950543,-0.10540500162397977,-0.07855481833472858,0
751,0.030040000000000067,5.000378781950543,-0.10376105268990284,-0.07692629142266952,0
752,0.030080000000000107,4.99972120164681,-0.10343226290269213,-0.07661313287775662,0
753,0.030119999999999925,4.99972120164681,-0.10441863226392899,-0.07761534247717508,0
754,0.030159999999999965,5.000049991798719,-0.10376105268990284,-0.07697381191060697,0
755,0.030200000000000005,4.99972120164681,-0.10376105268990284,-0.07699006945852525,0
756,0.030240000000000045,4.999063621342738,-0.10704895055476103,-0.08029443318073937,0
757,0.030280000000000085,5.000378781950543,-0.10343226290269213,-0.07669441946223747,0
758,0.030319999999999903,5.000049991798719,-0.09915799565696932,-0.07243703399086487,0
759,0.030359999999999943,5.000378781950543,-0.10474742205074437,-0.07804354976214642,0
760,0.030399999999999983,5.001036362253937,-0.10573379141039972,-0.07904721586264091,0
761,0.030440000000000023,4.99972120164681,-0.10573379141039972,-0.07906471972479484,0
762,0.030480000000000063,5.000049991798719,-0.10704895055476103,-0.08039758960841574,0
763,0.030520000000000103,5.000707572102282,-0.10935047905231472,-0.08271703547593659,0
764,0.03055999999999992,5.000049991798719,-0.10902168926734575,-0.08240636944305793,0
765,0.03059999999999996,5.000049991798719,-0.10704895055476103,-0.08045196061391852,0
766,0.03064,5.000378781950543,-0.10145952417666172,-0.07488106999767052,0
767,0.03068000000000004,5.000378781950543,-0.10441863226392899,-0.07785891947006827,0
768,0.03072000000000008,5.000378781950543,-0.10869289948224485,-0.08215213343949179,0
769,0.0307599999999999,5.000378781950543,-0.11132321775935598,-0.08480160357421346,0
770,0.03079999999999994,5.000378781950543,-0.10737774034052165,-0.0808754828578492,0
771,0.03083999999999998,4.99972120164681,-0.10573379141039972,-0.07925109521124724,0
772,0.03088000000000002,4.99972120164681,-0.10869289948224485,-0.08222996888168947,0
773,0.03092000000000006,5.000049991798719,-0.10573379141039972,-0.07929083045538536,0
774,0.0309600000000001,5.000049991798719,-0.10408984247698179,-0.07766705494416191,0
775,0.030999999999999917,5.000378781950543,-0.10211710375253198,-0.07571469314611518,0
776,0.031039999999999957,4.999392411494816,-0.10474742205074437,-0.07836559160034322,0
777,0.031079999999999997,5.000378781950543,-0.10376105268990284,-0.07740000534838558,0
778,0.031120000000000037,5.000378781950543,-0.10408984247698179,-0.0777497809183274,0
779,0.031160000000000077,5.000378781950543,-0.10408984247698179,-0.07777096909413816,0
780,0.031199999999999894,5.000049991798719,-0.10770653012615032,-0.08140904702889551,0
781,0.031239999999999934,5.000049991798719,-0.10310347311534969,-0.07682758212815653,0
782,0.031279999999999974,5.000049991798719,-0.10145952417666172,-0.07520542683656545,0
783,0.031320000000000014,5.000049991798719,-0.10343226290269213,-0.07720016045716108,0
784,0.031360000000000054,5.000378781950543,-0.10343226290269213,-0.07722235630750153,0
785,0.031400000000000095,5.000049991798719,-0.10441863226392899,-0.07823112218103805,0
786,0.03143999999999991,5.000049991798719,-0.10408984247698179,-0.07792492927241393,0
787,0.03147999999999995,5.000378781950543,-0.10474742205074437,-0.07860530579247084,0
788,0.03151999999999999,5.000049991798719,-0.10573379141039972,-0.07961467186622646,0
789,0.03156000000000003,5.000049991798719,-0.10507621183742798,-0.0789802884728862,0
790,0.03160000000000007,5.000049991798719,-0.10343226290269213,-0.07735973487893236,0
791,0.03164000000000011,5.000049991798719,-0.10639137098284411,-0.0803424371545335,0
792,0.03167999999999993,5.000707572102282,-0.10672016076886852,-0.0806950196820915,0
793,0.03171999999999997,4.99972120164681,-0.10474742205074437,-0.07874627194090676,0
794,0.03176000000000001,4.999392411494816,-0.10704895055476103,-0.0810719893444974,0
795,0.03180000000000005,4.99972120164681,-0.10639137098284411,-0.08043879627992873,0
796,0.03184000000000009,5.001036362253937,-0.10047315481186896,-0.0745451639071301,0
797,0.03187999999999991,4.999063621342738,-0.1027746833278755,-0.07687147319311365,0
798,0.03191999999999995,5.002351522859708,-0.10080194460026483,-0.0749237118861745,0
799,0.03195999999999999,5.000049991798719,-0.09948678544589158,-0.0736337264799865,0
800,0.03200000000000003,4.999392411494816,-0.1027746833278755,-0.07694699411241775,0
801,0.03204000000000007,5.000049991798719,-0.0971852569206733,-0.07138313313060618,0
802,0.03208000000000011,4.999392411494816,-0.10441863226392899,-0.07864226924481352,0
803,0.032119999999999926,5.001365152405508,-0.1024458935402696,-0.07669548630622475,0
804,0.032159999999999966,4.999063621342738,-0.09850041607873007,-0.07277615931037673,0
805,0.032200000000000006,4.998734831190575,-0.09817162628941313,-0.0724737143318217,0
806,0.032240000000000046,5.000049991798719,-0.10113073438852911,-0.07545936124917109,0
807,0.032280000000000086,5.000049991798719,-0.09652767734085597,-0.07088303668755945,0
808,0.032319999999999904,4.99972120164681,-0.09389735901632983,-0.06827964417523923,0
809,0.032359999999999944,5.000378781950543,-0.09685646713083039,-0.07126587108437041,0
810,0.032399999999999984,5.000378781950543,-0.09652767734085597,-0.07096439272569939,0
811,0.032440000000000024,5.000378781950543,-0.09619888755075014,-0.07066310665578975,0
812,0.032480000000000064,5.000707572102282,-0.09126704068339796,-0.0657589554477226,0
813,0.032520000000000104,5.000378781950543,-0.09323977943388458,-0.06775958144475941,0
814,0.03255999999999992,4.999392411494816,-0.08929430192818714,-0.06384218241903812,0
815,0.03259999999999996,5.000378781950543,-0.08797914275542355,-0.06255529260382589,0
816,0.03264,5.000378781950543,-0.08370487542946127,-0.05830948515513186,0
817,0.03268000000000004,5.000378781950543,-0.08502003460903816,-0.05965329437183213,0
818,0.03272000000000008,5.000378781950543,-0.0840336652245519,-0.05869576482246293,0
819,0.0327599999999999,5.000049991798719,-0.08041697747135755,-0.05510810633852231,0
820,0.03279999999999994,4.99972120164681,-0.08107455706402487,-0.055794904268731085,0
821,0.03283999999999998,4.99972120164681,-0.07811544889290346,-0.052865203135602556,0
822,0.03288000000000002,4.999392411494816,-0.07384118151593398,-0.048620531127258004,0
823,0.03292000000000006,5.000049991798719,-0.07022449371819571,-0.04503362665697841,0
824,0.0329600000000001,4.99972120164681,-0.06858054471400928,-0.04341964856531133,0
825,0.03299999999999992,5.000378781950543,-0.06134716905692379,-0.03621643103006256,0
826,0.03303999999999996,5.000049991798719,-0.06101837925283336,-0.035917986179416855,0
827,0.03308,5.000049991798719,-0.06003200983978245,-0.03496214817174764,0
828,0.03312000000000004,4.99972120164681,-0.06101837925283336,-0.03597923506048922,0
829,0.03316000000000008,4.99972120164681,-0.054113793336938706,-0.02910555230701381,0
830,0.033199999999999896,5.000049991798719,-0.05181226468559495,-0.026835112119289545,0
831,0.033239999999999936,4.999392411494816,-0.0491819462191435,-0.024236067030186242,0
832,0.033279999999999976,5.000378781950543,-0.042277360205311795,-0.01736293891802068,0
833,0.033320000000000016,5.000378781950543,-0.03800309264438971,-0.013120313391737581,0
834,0.033360000000000056,5.000049991798719,-0.03734551301769716,-0.012494559539381861,0
835,0.033400000000000096,5.000049991798719,-0.0445788888829237,-0.01975994452344279,0
836,0.033439999999999914,4.99972120164681,-0.04030462133375036,-0.015517869040480692,0
837,0.033479999999999954,5.000049991798719,-0.03931825189622702,-0.014563874217508571,0
838,0.033519999999999994,5.000378781950543,-0.04030462133375036,-0.015582800416974685,0
839,0.033560000000000034,5.000707572102282,-0.04129099077011207,-0.016601908359815565,0
840,0.033600000000000074,5.000049991798719,-0.03964704170886384,-0.014990879144825692,0
841,0.033640000000000114,5.000378781950543,-0.0389894620834612,-0.014366400298806453,0
842,0.03367999999999993,5.000049991798719,-0.037016723204157484,-0.012426942723464729,0
843,0.03371999999999997,5.000049991798719,-0.04063341114600001,-0.016077092083414124,0
844,0.03376000000000001,5.000049991798719,-0.03635914357669136,-0.011836465634040866,0
845,0.03380000000000005,5.000378781950543,-0.03603035376276496,-0.011541496227684411,0
846,0.03384000000000009,5.000049991798719,-0.03274245561641449,-0.008287597360471355,0
847,0.03387999999999991,5.000378781950543,-0.03241366580107112,-0.00799298527789749,0
848,0.03391999999999995,4.999392411494816,-0.029783347273691016,-0.005397022517120376,0
849,0.03395999999999999,5.000049991798719,-0.026166659285104213,-0.001814867907312806,0
850,0.03400000000000003,5.000378781950543,-0.03635914357669136,-0.012042062766344758,0
851,0.03404000000000007,5.000378781950543,-0.03603035376276496,-0.011748160283169884,0
852,0.03408000000000011,5.000378781950543,-0.03208487598559902,-0.007837746172860094,0
853,0.03411999999999993,5.000378781950543,-0.03734551301769716,-0.01313362277887864,0
854,0.03415999999999997,5.000378781950543,-0.04194857039370768,-0.017772095205000088,0
855,0.03420000000000001,5.000049991798719,-0.045565258314247556,-0.021424373219139287,0
856,0.03424000000000005,5.000378781950543,-0.05444258314375501,-0.030337462751209326,0
857,0.03428000000000009,5.000378781950543,-0.06200474866471477,-0.037935567147351815,0
858,0.034319999999999906,5.000378781950543,-0.07252602231858225,-0.04849295341086628,0
859,0.034359999999999946,4.99972120164681,-0.08238971624778989,-0.058392933244221776,0
860,0.034399999999999986,5.000049991798719,-0.08929430192818714,-0.06533397768150229,0
861,0.034440000000000026,5.000049991798719,-0.09784283649996468,-0.07391914341933616,0
862,0.034480000000000066,4.99972120164681,-0.10343226290269213,-0.07954537295193917,0
863,0.034520000000000106,5.000049991798719,-0.10672016076886852,-0.08287024546467033,0
864,0.034559999999999924,5.000378781950543,-0.10967926883715166,-0.08586649924726655,0
865,0.034599999999999964,5.000049991798719,-0.11428232581100171,-0.09050687255249157,0
866,0.034640000000000004,5.000378781950543,-0.10967926883715166,-0.08594130207461158,0
867,0.034680000000000044,5.000378781950543,-0.1100080586218566,-0.08630774806565034,0
868,0.034720000000000084,5.000049991798719,-0.10672016076886852,-0.0830576756733692,0
869,0.0347599999999999,5.000378781950543,-0.10211710375253198,-0.07849261291436815,0
870,0.03479999999999994,5.000049991798719,-0.09685646713083039,-0.0732701388871375,0
871,0.03483999999999998,5.000049991798719,-0.08600640399234578,-0.06245840621902313,0
872,0.03488000000000002,5.000378781950543,-0.08304729583888733,-0.05953779594886041,0
873,0.03492000000000006,5.000049991798719,-0.07416997131494572,-0.05069913625643396,0
874,0.0349600000000001,5.000378781950543,-0.07318360191751903,-0.04975159817230898,0
875,0.03499999999999992,5.000707572102282,-0.06595022630053791,-0.04255721988226244,0
876,0.03503999999999996,5.000049991798719,-0.06364869768191721,-0.04029485413434006,0
877,0.03508,5.000378781950543,-0.05312742391571186,-0.02981290831101814,0
878,0.03512000000000004,4.99972120164681,-0.04161978058197445,-0.018344757519066557,0
879,0.03516000000000008,4.99972120164681,-0.03372882506167206,-0.01049345866447135,0
880,0.0351999999999999,5.000378781950543,-0.029783347273691016,-0.006587801189445158,0
881,0.03523999999999994,5.000378781950543,-0.033071245431629134,-0.009915682829225142,0
882,0.03527999999999998,5.000049991798719,-0.029783347273691016,-0.006667930841974173,0
883,0.03532000000000002,4.999392411494816,-0.028139398189897927,-0.005064290135996408,0
884,0.03536000000000006,4.99972120164681,-0.024851500012672237,-0.0018168620603273289,0
885,0.0354000000000001,5.000049991798719,-0.017618123977595282,0.0053758826345023936,0
886,0.035439999999999916,4.99972120164681,-0.010055958056451306,0.01289725646341755,0
887,0.035479999999999956,4.99972120164681,-0.003808951374948702,0.01910331078907107,0
888,0.035519999999999996,5.000707572102282,0.006054743479005864,0.028925893513563866,0
889,0.035560000000000036,5.000378781950543,0.011644170613713423,0.03447404923684477,0
890,0.035600000000000076,4.99972120164681,0.014603279111640999,0.037391727534662855,0
891,0.035639999999999894,5.000049991798719,0.02085028597429857,0.04359714590343844,0
892,0.035679999999999934,5.000378781950543,0.025124553854007567,0.047829667492025746,0
893,0.035719999999999974,4.99972120164681,0.03433066935967702,0.05699387940748285,0
894,0.035760000000000014,5.000049991798719,0.03564582872569445,0.058266978383956725,0
895,0.035800000000000054,5.000378781950543,0.03564582872569445,0.05822476169644558,0
896,0.035840000000000094,5.000049991798719,0.04024888652260587,0.06278544701084024,0
897,0.03587999999999991,5.000378781950543,0.036303408409458296,0.05879744112472454,0
898,0.03591999999999995,5.001036362253937,0.03827614746376892,0.06072749762175639,0
899,0.03595999999999999,4.99972120164681,0.03959130683582415,0.061999820159943125,0
900,0.03600000000000003,5.000049991798719,0.034988249042434,0.057353771765390055,0
901,0.03604000000000007,5.000049991798719,0.028083662398618273,0.05040604126398027,0
902,0.03608000000000011,5.000049991798719,0.025782133529704057,0.04806121579346623,0
903,0.03611999999999993,5.000378781950543,0.01821996728971463,0.040455600721851975,0
904,0.03615999999999997,5.000378781950543,0.01821996728971463,0.04041200017573207,0
905,0.03620000000000001,4.99972120164681,0.02315181482994949,0.045300095972424625,0
906,0.03624000000000005,5.000378781950543,0.016904807950460177,0.039009186670580065,0
907,0.03628000000000009,5.000049991798719,0.006054743479005864,0.028115069618097316,0
908,0.03631999999999991,5.000378781950543,-0.024851500012672237,-0.0028353760916186577,0
909,0.03635999999999995,4.99972120164681,-0.05214105449331856,-0.03016928190413122,0
910,0.03639999999999999,5.000378781950543,-0.050168315645034,-0.02824104297684922,0
911,0.03644000000000003,5.000378781950543,-0.044907678693494255,-0.023025054009251505,0
912,0.03648000000000007,5.000378781950543,-0.05049710545340523,-0.028659276288348842,0
913,0.03652000000000011,4.99972120164681,-0.046880417554202566,-0.025087530914389908,0
914,0.036559999999999926,5.000049991798719,-0.04392130926139491,-0.02217351162221118,0
915,0.036599999999999966,4.999392411494816,-0.05674411178783788,-0.0350415490925175,0
916,0.036640000000000006,5.000049991798719,-0.06397748748496758,-0.04232030514312205,0
917,0.036680000000000046,5.000378781950543,-0.07022449371819571,-0.04861283660434786,0
918,0.036720000000000086,5.000049991798719,-0.07745786929788322,-0.05589188175000814,0
919,0.036759999999999904,5.000049991798719,-0.07581392030804664,-0.05429374612611912,0
920,0.036799999999999944,5.000378781950543,-0.07943060808137585,-0.05795639052592439,0
921,0.036839999999999984,5.000378781950543,-0.07943060808137585,-0.058002489872043504,0
922,0.036880000000000024,5.000049991798719,-0.07778665909545869,-0.056404782409570656,0
923,0.036920000000000064,5.000049991798719,-0.07449876111382696,-0.053163267584964806,0
924,0.036960000000000104,5.000049991798719,-0.07778665909545869,-0.056497689812041355,0
925,0.03699999999999992,5.000707572102282,-0.08008818767482774,-0.05884588317869944,0
926,0.03703999999999996,4.99972120164681,-0.08140334686016236,-0.060207847145187135,0
927,0.03708,4.99972120164681,-0.08041697747135755,-0.05926842198202064,0
928,0.03712000000000004,5.000378781950543,-0.08370487542946127,-0.06260340305947716,0
929,0.03716000000000008,4.99972120164681,-0.08140334686016236,-0.0603490959510897,0
930,0.0371999999999999,5.000049991798719,-0.08008818767482774,-0.059081296014690976,0
931,0.03723999999999994,5.000378781950543,-0.07745786929788322,-0.05649847411980111,0
932,0.03727999999999998,5.000707572102282,-0.07581392030804664,-0.05490215828886745,0
933,0.03732000000000002,4.99972120164681,-0.07844423869021762,-0.05758024594916113,0
934,0.03736000000000006,5.000049991798719,-0.07844423869021762,-0.05762815078752395,0
935,0.0374000000000001,5.000049991798719,-0.08370487542946127,-0.06293682736504665,0
936,0.03743999999999992,5.000378781950543,-0.07943060808137585,-0.058710734293495194,0
937,0.03747999999999996,5.000049991798719,-0.08830793254881113,-0.06763636691272766,0
938,0.03752,5.000049991798719,-0.09685646713083039,-0.07623334295749207,0
939,0.03756000000000004,5.000049991798719,-0.09554130797014417,-0.07496675800486688,0
940,0.03760000000000008,4.99972120164681,-0.09915799565696932,-0.0786321520781271,0
941,0.037639999999999896,5.000049991798719,-0.11198079732731327,-0.09150379174503545,0
942,0.037679999999999936,5.000049991798719,-0.11559748494162976,-0.0951694483965052,0
943,0.037719999999999976,4.999392411494816,-0.12414601923909123,-0.10376708220087945,0
944,0.037760000000000016,4.99972120164681,-0.13400971254782096,-0.11368000491417052,0
945,0.037800000000000056,5.000378781950543,-0.14453098527848057,-0.1242506363736543,0
946,0.037840000000000096,5.000049991798719,-0.15242193973679719,-0.13219107831040441,0
947,0.037879999999999914,5.000049991798719,-0.1583401555299606,-0.13815890975569653,0
948,0.037919999999999954,4.999392411494816,-0.169190217704546,-0.14905871517893815,0
949,0.037959999999999994,5.000049991798719,-0.18332817728789086,-0.16324654502905267,0
950,0.038000000000000034,5.000049991798719,-0.18562970556853736,-0.16559807001492866,0
951,0.038040000000000074,5.000707572102282,-0.19615097762417932,-0.17616946463337374,0
952,0.038080000000000114,5.000378781950543,-0.21193288544700017,-0.1920016202944598,0
953,0.03811999999999993,5.000049991798719,-0.21817989054016812,-0.1982989979180252,0
954,0.03815999999999997,5.000049991798719,-0.22672842374561925,-0.2068980277614647,0
955,0.03820000000000001,5.000378781950543,-0.23001632110768933,-0.21023654528336816,0
956,0.03824000000000005,5.000049991798719,-0.23724969525595985,-0.21752066252637411,0
957,0.03828000000000009,5.000378781950543,-0.24415427960817487,-0.22447611232009312,0
958,0.03831999999999991,5.000378781950543,-0.24842854608150067,-0.228801365992375,0
959,0.03835999999999995,5.000378781950543,-0.24777096662558196,-0.22819489490237224,0
960,0.03839999999999999,5.000049991798719,-0.25040128444594667,-0.23087644166395166,0
961,0.03844000000000003,5.000049991798719,-0.24678459744067005,-0.22731110358236603,0
962,0.03848000000000007,4.99972120164681,-0.24053759257410445,-0.22111556702799146,0
963,0.03852000000000011,5.000049991798719,-0.23757848498839296,-0.2182080465478487,0
964,0.03855999999999993,4.999392411494816,-0.22902995190050734,-0.20971121876264845,0
965,0.03859999999999997,4.999392411494816,-0.22344052636985184,-0.20417361613440294,0
966,0.03864000000000001,4.99972120164681,-0.2188374700207923,-0.1996224996889627,0
967,0.03868000000000005,4.99972120164681,-0.21916625976089943,-0.20000334573426726,0
968,0.03872000000000009,5.000378781950543,-0.21620715209501734,-0.1970964101744211,0
969,0.038759999999999906,4.999392411494816,-0.21522078287059865,-0.1961623282550362,0
970,0.038799999999999946,4.999392411494816,-0.21620715209501734,-0.19720109938055266,0
971,0.038839999999999986,4.99972120164681,-0.20930256749830378,-0.19034903067698053,0
972,0.038880000000000026,4.999392411494816,-0.21028893673008708,-0.19138802918885,0
973,0.038920000000000066,5.000049991798719,-0.20502830081307927,-0.18618013533270278,0
974,0.038960000000000106,5.000049991798719,-0.20963135724236776,-0.19083604599639248,0
975,0.038999999999999924,4.999392411494816,-0.20798740852068553,-0.18924506307436215,0
976,0.039039999999999964,4.99972120164681,-0.20601467005017304,-0.18732540135941345,0
977,0.039080000000000004,5.000049991798719,-0.20108282385246334,-0.18244674226279953,0
978,0.039120000000000044,5.000049991798719,-0.1958221878745412,-0.1772394031200914,0
979,0.039160000000000084,5.000049991798719,-0.1899039723578687,-0.1713745935603109,0
980,0.0391999999999999,5.000378781950543,-0.18102664900062287,-0.16255078466817605,0
981,0.03923999999999994,5.000378781950543,-0.17247811530430668,-0.1540558733307193,0
982,0.03927999999999998,4.99972120164681,-0.16688868937670803,-0.1485201770402538,0
983,0.03932000000000002,5.000378781950543,-0.1586689452949745,-0.1403542692574557,0
984,0.03936000000000006,4.99972120164681,-0.14650372390027555,-0.12824299020603386,0
985,0.0394000000000001,4.99972120164681,-0.1297354454620503,-0.11152875953698473,0
986,0.03943999999999992,5.000378781950543,-0.11493990537658023,-0.09678737202717294,0
987,0.03947999999999996,4.99972120164681,-0.09948678544589158,-0.08138850885824103,0
988,0.03952,5.000049991798719,-0.08238971624778989,-0.06434579998665196,0
989,0.03956000000000004,4.99972120164681,-0.06463506709067811,-0.046645614098514934,0
990,0.03960000000000008,5.000049991798719,-0.05214105449331856,-0.03420616708935495,0
991,0.0396399999999999,5.000049991798719,-0.03603035376276496,-0.018150133642052438,0
992,0.03967999999999994,5.000049991798719,-0.02090602218305261,-0.003080570415541148,0
993,0.03971999999999998,5.000049991798719,-0.00939837840793746,0.008372204562445057,0
994,0.03976000000000002,5.000378781950543,0.0030956350107915753,0.020811249367051976,0
995,0.03980000000000006,5.000049991798719,0.012630540111881347,0.030291086664866268,0
996,0.0398400000000001,5.000378781950543,0.02315181482994949,0.04075719501924263,0
997,0.039879999999999916,5.000049991798719,0.024466974178816228,0.04201709007362825,0
998,0.039919999999999956,5.000049991798719,0.0313715607935042,0.04886631509355463,0
999,0.039959999999999996,4.99972120164681,0.03268672015498804,0.05012601619137949,0
1000,0.040000000000000036,5.000049991798719,0.028412452237539368,0.04579619397362397,0
1001,0.040040000000000076,5.000707572102282,0.029070031915759978,0.04639812394799797,0
1002,0.040080000000000116,5.001365152405508,0.029727611594485073,0.04699995915329552,0
1003,0.040119999999999933,4.99972120164681,0.0264397132059056,0.043656222156509245,0
1004,0.040159999999999973,4.999392411494816,0.019863916466630674,0.03702449330988497,0
1005,0.040200000000000014,5.001365152405508,0.018877546960101396,0.035982098833327564,0
1006,0.040240000000000054,4.99972120164681,0.01295932994485767,0.030007764622659888,0
1007,0.040280000000000094,5.000049991798719,0.01032901128459894,0.027321237179675786,0
1008,0.04031999999999991,5.001693942556992,-0.00019226327513760522,0.016743662888810656,0
1009,0.04035999999999995,4.99972120164681,-0.0018362124133269458,0.015043323710783721,0
1010,0.04039999999999999,4.999063621342738,-0.010055958056451306,0.006767098359595047,0
1011,0.04044000000000003,5.000378781950543,-0.012357486822223915,0.004409000858793977,0
1012,0.04048000000000007,4.99972120164681,-0.017946913798717698,-0.001237083237657477,0
1013,0.04052000000000011,5.001036362253937,-0.01696054433496612,-0.0003074586359932824,0
1014,0.04055999999999993,5.002351522859708,-0.023865130556999917,-0.007268876818687889,0
1015,0.04059999999999997,4.999392411494816,-0.025837869467188898,-0.009298534143805909,0
1016,0.04064000000000001,4.99972120164681,-0.03668793339048888,-0.020205602291256855,0
1017,0.04068000000000005,5.000378781950543,-0.03603035376276496,-0.019605112051126444,0
1018,0.04072000000000009,5.000049991798719,-0.04063341114600001,-0.02426534333889309,0
1019,0.04075999999999991,5.000049991798719,-0.04063341114600001,-0.024322601113141357,0
1020,0.04079999999999995,4.999392411494816,-0.04720920736386795,-0.030955738327043646,0
1021,0.04083999999999999,4.99972120164681,-0.04425009907222392,-0.028054053604588458,0
1022,0.04088000000000003,5.000049991798719,-0.04523646850393555,-0.029097928529318556,0
1023,0.04092000000000007,5.000378781950543,-0.04260615001678679,-0.026525196809007827,0
1024,0.04096000000000011,5.000378781950543,-0.04063341114600001,-0.02461012532819124,0
1025,0.040999999999999925,5.000049991798719,-0.035372774134525484,-0.019407235678462323,0
1026,0.041039999999999965,4.999392411494816,-0.03866067227056637,-0.022752960496006405,0
1027,0.041080000000000005,5.000707572102282,-0.03668793339048888,-0.020838126964518672,0
1028,0.041120000000000045,4.99972120164681,-0.027481818555480722,-0.01168999549187072,0
1029,0.041160000000000085,5.000378781950543,-0.021563601822605624,-0.00582983948117323,0
1030,0.0411999999999999,5.000049991798719,-0.013672646114138112,0.002002978799881247,0
1031,0.04123999999999994,5.000378781950543,-0.005124110680146385,0.010493300756427404,0
1032,0.04127999999999998,4.99972120164681,-0.0024937920677107622,0.013065330497200656,0
1033,0.04132000000000002,4.99972120164681,-0.002165002240582567,0.013335756714870098,0
1034,0.04136000000000006,5.000049991798719,0.0007941062093044515,0.01623642747451902,0
1035,0.0414000000000001,4.99972120164681,0.006054743479005864,0.021438553630808405,0
1036,0.04143999999999992,4.999392411494816,0.004739584158527918,0.02006481043193009,0
1037,0.04147999999999996,4.99972120164681,0.006054743479005864,0.021321313767777003,0
1038,0.04152,4.99972120164681,0.010986590948902406,0.02619443380613337,0
1039,0.04156000000000004,5.000378781950543,0.012630540111881347,0.027779584750540126,0
1040,0.04160000000000008,5.000049991798719,0.013616909611190692,0.028707085904669666,0
1041,0.0416399999999999,5.000378781950543,0.00506837398845672,0.020099612471111653,0
1042,0.04167999999999994,4.99972120164681,0.006383533309443135,0.02135576517712401,0
1043,0.04171999999999998,5.000378781950543,0.003424424840084442,0.018337581950658058,0
1044,0.04176000000000002,5.000378781950543,0.004082004499051814,0.01893601937291592,0
1045,0.04180000000000006,4.99972120164681,0.001780475694892425,0.016575281515481613,0
1046,0.0418400000000001,4.99972120164681,0.0027668451816259126,0.017502375795909228,0
1047,0.04187999999999992,4.99972120164681,-0.00019226327513760522,0.014483926643832773,0
1048,0.04191999999999996,5.000707572102282,-0.0015074225859438989,0.013109361813211526,0
1049,0.04196,5.000049991798719,-0.007096849634115457,0.007460465085700918,0
1050,0.04200000000000004,4.99972120164681,-0.012357486822223915,0.0021402947241718484,0
1051,0.04204000000000008,4.99972120164681,-0.014330225759327644,0.00010795978546474655,0
1052,0.042079999999999895,5.000378781950543,-0.018275703619711994,-0.003897176238358932,0
1053,0.042119999999999935,5.000049991798719,-0.02090602218305261,-0.00658721446018825,0
1054,0.042159999999999975,5.000049991798719,-0.026495449102891075,-0.012236421866346901,0
1055,0.042200000000000015,4.99972120164681,-0.028468188006913683,-0.014269001416880298,0
1056,0.042240000000000055,4.999063621342738,-0.03274245561641449,-0.018603169165026745,0
1057,0.042280000000000095,4.99972120164681,-0.0389894620834612,-0.02491013459439174,0
1058,0.04231999999999991,4.99972120164681,-0.04161978058197445,-0.027600470210035588,0
1059,0.04235999999999995,4.99972120164681,-0.04392130926139491,-0.02996207349214874,0
1060,0.04239999999999999,5.000049991798719,-0.04720920736386795,-0.03331010301324476,0
1061,0.04244000000000003,4.99972120164681,-0.0498395258365333,-0.03600060905045829,0
1062,0.04248000000000007,5.000049991798719,-0.04951073602790314,-0.035732062281931466,0
1063,0.04252000000000011,5.000049991798719,-0.05214105449331856,-0.038422678592278645,0
1064,0.04255999999999993,4.99972120164681,-0.057401691399265334,-0.04374366747691058,0
1065,0.04259999999999997,4.99972120164681,-0.05312742391571186,-0.0395298054343807,0
1066,0.04264000000000001,4.99972120164681,-0.05575774236972354,-0.042220582120007816,0
1067,0.04268000000000005,5.000049991798719,-0.05378500352999273,-0.040308353630414406,0
1068,0.04272000000000009,5.000378781950543,-0.054113793336938706,-0.04069770523363496,0
1069,0.04275999999999991,5.000049991798719,-0.054113793336938706,-0.040758317803355384,0
1070,0.04279999999999995,4.99972120164681,-0.054113793336938706,-0.040818980473532135,0
1071,0.04283999999999999,5.000378781950543,-0.052469844300912574,-0.039235743534859716,0
1072,0.04288000000000003,5.000378781950543,-0.05279863410837703,-0.03962529419329401,0
1073,0.04292000000000007,4.999392411494816,-0.05378500352999273,-0.04067247254566181,0
1074,0.04296000000000011,4.999392411494816,-0.050168315645034,-0.03711664099713884,0
1075,0.04299999999999993,5.000378781950543,-0.05279863410837703,-0.03980786252824632,0
1076,0.04303999999999997,5.000049991798719,-0.050168315645034,-0.037238493189393554,0
1077,0.04308000000000001,5.000378781950543,-0.05082589526164695,-0.03795706731238013,0
1078,0.04312000000000005,5.000049991798719,-0.0498395258365333,-0.037031737100449935,0
1079,0.04316000000000009,5.000378781950543,-0.05148347487774181,-0.03873676938635547,0
1080,0.043199999999999905,5.000378781950543,-0.05049710545340523,-0.03781152656271888,0
1081,0.043239999999999945,4.99972120164681,-0.0491819462191435,-0.03655753660944364,0
1082,0.043279999999999985,4.99972120164681,-0.04589404812443025,-0.03333084980008952,0
1083,0.043320000000000025,5.000049991798719,-0.044907678693494255,-0.032405732982782445,0
1084,0.043360000000000065,5.000378781950543,-0.04326372963934923,-0.030823077194252726,0
1085,0.043400000000000105,4.99972120164681,-0.04786678698281073,-0.03548746777886034,0
1086,0.04343999999999992,5.000378781950543,-0.057401691399265334,-0.04508374473537253,0
1087,0.04347999999999996,4.99972120164681,-0.06167595886088427,-0.04941942335918591,0
1088,0.04352,5.000049991798719,-0.05707290159361651,-0.04487781519932789,0
1089,0.04356000000000004,5.000378781950543,-0.05510016275699865,-0.04296656273827498,0
1090,0.04360000000000008,5.000707572102282,-0.04951073602790314,-0.03743865897570946,0
1091,0.0436399999999999,4.99972120164681,-0.04359251945043667,-0.031582001278426045,0
1092,0.04367999999999994,5.000049991798719,-0.04326372963934923,-0.03131480558374945,0
1093,0.04371999999999998,5.000049991798719,-0.04161978058197445,-0.029732485201483166,0
1094,0.04376000000000002,5.000049991798719,-0.04359251945043667,-0.03176688662612483,0
1095,0.04380000000000006,5.000378781950543,-0.03767430283110791,-0.025910365766331697,0
1096,0.0438400000000001,4.99972120164681,-0.035043984320212454,-0.02334177554053359,0
1097,0.04387999999999992,4.99972120164681,-0.031756086169998185,-0.020115637523112722,0
1098,0.04391999999999996,5.000707572102282,-0.030112137090063842,-0.018533479745739417,0
1099,0.04396,5.000378781950543,-0.020248442542986647,-0.008731606993008227,0
1100,0.04400000000000004,5.000049991798719,-0.01564538504817102,-0.004190401106295059,0
1101,0.04404000000000008,4.999392411494816,-0.01696054433496612,-0.005567441136883237,0
1102,0.0440799999999999,5.000378781950543,-0.014987805404005308,-0.0036566114073114803,0
1103,0.04411999999999994,5.000049991798719,-0.012357486822223915,-0.0010882298064001095,0
1104,0.04415999999999998,5.000049991798719,-0.009727168232258263,0.001480124701341498,0
1105,0.04420000000000002,5.000049991798719,-0.007425639459330238,0.0037196629688218547,0
1106,0.04424000000000006,5.000049991798719,-0.004137741201439435,0.006945544976166805,0
1107,0.0442800000000001,4.99972120164681,-0.0047953208540382625,0.00622592400603602,0
1108,0.044319999999999915,5.000378781950543,-0.00808321910937683,0.002875960044269592,0
1109,0.044359999999999955,4.999392411494816,-0.007096849634115457,0.003800240102267066,0
1110,0.044399999999999995,5.000049991798719,-0.013343856291351444,-0.0025088790050476623,0
1111,0.044440000000000035,5.000049991798719,-0.010713537704454032,5.9304776930158704e-05,0
1112,0.044480000000000075,4.999392411494816,-0.0090695885834889,0.0016410974160533214,0
1113,0.044520000000000115,4.99972120164681,-0.010055958056451306,0.0005925504621809886,0
1114,0.04455999999999993,5.000378781950543,-0.007754429284417372,0.0028318814320190157,0
1115,0.04459999999999997,5.000378781950543,-0.00808321910937683,0.002440874161278698,0
1116,0.04464000000000001,5.000378781950543,-0.012357486822223915,-0.0018956299633225981,0
1117,0.04468000000000005,5.000049991798719,-0.005781690331979852,0.004617911826707656,0
1118,0.04472000000000009,5.000049991798719,-0.010713537704454032,-0.00037620785703243106,0
1119,0.04475999999999991,5.000049991798719,-0.010384747880516562,-0.00010970727812019063,0
1120,0.04479999999999995,4.99972120164681,-0.003808951374948702,0.006403783725832796,0
1121,0.04483999999999999,5.000378781950543,-0.0113711173519455,-0.0012207033323303508,0
1122,0.04488000000000003,5.000049991798719,-0.017289334156344746,-0.007201256120549239,0
1123,0.04492000000000007,5.001036362253937,-0.02320755091924319,-0.013181823093170836,0
1124,0.04496000000000011,4.99972120164681,-0.017618123977595282,-0.007654759910556681,0
1125,0.04499999999999993,5.000378781950543,-0.01597417487006185,-0.00607318743493993,0
1126,0.04503999999999997,5.000378781950543,-0.00939837840793746,0.00044022019863882225,0
1127,0.04508000000000001,5.000049991798719,-0.008412008934208556,0.0013641893232650172,0
1128,0.04512000000000005,5.000378781950543,-0.00874079875891258,0.0009729883047825752,0
1129,0.04516000000000009,5.000049991798719,-0.005781690331979852,0.0038696753689436043,0
1130,0.04519999999999991,4.99972120164681,-0.008412008934208556,0.0011769259104250328,0
1131,0.04523999999999995,5.000049991798719,-0.0116999071754995,-0.002173412005414604,0
1132,0.04527999999999999,5.000378781950543,-0.0116999071754995,-0.0022358598231869507,0
1133,0.04532000000000003,5.000378781950543,-0.014001435936796827,-0.004599843870677684,0
1134,0.04536000000000007,5.000049991798719,-0.00939837840793746,-5.924842187118515e-05,0
1135,0.04540000000000011,4.999392411494816,-0.00808321910937683,0.0011934426770893406,0
1136,0.045439999999999925,5.000378781950543,-0.005124110680146385,0.004090077461226872,0
1137,0.045479999999999965,5.000378781950543,-0.012357486822223915,-0.0032057770976481404,0
1138,0.045520000000000005,5.000049991798719,-0.00348016154833046,0.005609065661256903,0
1139,0.045560000000000045,5.000049991798719,-0.00874079875891258,0.00028594251072613583,0
1140,0.045600000000000085,5.000378781950543,-0.0031513717215847087,0.005812880856084387,0
1141,0.0456399999999999,5.000378781950543,-0.0090695885834889,-0.00016782677717085484,0
1142,0.04567999999999994,4.99972120164681,-0.002165002240582567,0.006674267387334367,0
1143,0.04571999999999998,5.000049991798719,-0.005124110680146385,0.0036526660343343086,0
1144,0.04576000000000002,5.000049991798719,-0.004466531027802631,0.0042477527098967235,0
1145,0.04580000000000006,5.000049991798719,-0.0031513717215847087,0.005500419647345033,0
1146,0.0458400000000001,4.99972120164681,-0.002165002240582567,0.006424298038604541,0
1147,0.04587999999999992,4.999392411494816,-0.009727168232258263,-0.0012003570931214836,0
1148,0.04591999999999996,5.000378781950543,-0.010384747880516562,-0.0019204232614307977,0
1149,0.04596,4.99972120164681,-0.0090695885834889,-0.0006677471945144464,0
1150,0.04600000000000004,5.000378781950543,-0.011042327528263687,-0.002702965409895424,0
1151,0.04604000000000008,5.000378781950543,-0.014330225759327644,-0.006053338282878345,0
1152,0.0460799999999999,5.000707572102282,-0.014330225759327644,-0.006115807627319616,0
1153,0.04611999999999994,5.000378781950543,-0.014987805404005308,-0.0068358506505703555,0
1154,0.04615999999999998,5.000049991798719,-0.01696054433496612,-0.008871046326253849,0
1155,0.04620000000000002,5.000378781950543,-0.020577232363083744,-0.012550183797678175,0
1156,0.04624000000000006,5.000049991798719,-0.023536340738185738,-0.015571733647530232,0
1157,0.0462800000000001,5.000049991798719,-0.01860449344057817,-0.010702319189408657,0
1158,0.04631999999999992,5.000378781950543,-0.021234812002893247,-0.013395061289679697,0
1159,0.04635999999999996,5.000049991798719,-0.025837869467188898,-0.01806053232458514,0
1160,0.0464,5.000049991798719,-0.021892391642189743,-0.014177457437491544,0
1161,0.04644000000000004,5.000049991798719,-0.021563601822605624,-0.01391105925821702,0
1162,0.04648000000000008,4.99972120164681,-0.021234812002893247,-0.013644649116801133,0
1163,0.046519999999999895,5.000049991798719,-0.018933283261316228,-0.01140548742757315,0
1164,0.046559999999999935,5.000049991798719,-0.01860449344057817,-0.011139051369793408,0
1165,0.046599999999999975,5.000378781950543,-0.01301506646843685,-0.005611964208275736,0
1166,0.046640000000000015,5.000049991798719,-0.01564538504817102,-0.008304607983862502,0
1167,0.046680000000000055,5.000049991798719,-0.01597417487006185,-0.008695707724914292,0
1168,0.046720000000000095,4.999063621342738,-0.014659015581730453,-0.00744284241765567,0
1169,0.04675999999999991,5.000049991798719,-0.012028696998925656,-0.00487480121697116,0
1170,0.04679999999999995,4.99972120164681,-0.010055958056451306,-0.002964322397340756,0
1171,0.04683999999999999,4.99972120164681,-0.012686276645394332,-0.005656883190076225,0
1172,0.04688000000000003,5.000049991798719,-0.010384747880516562,-0.003417578050721126,0
1173,0.04692000000000007,5.000049991798719,-0.009727168232258263,-0.002822202791062524,0
1174,0.04696000000000011,5.000049991798719,-0.012028696998925656,-0.0051859160513267,0
1175,0.04699999999999993,4.99972120164681,-0.013672646114138112,-0.006892029107634531,0
1176,0.04703999999999997,5.000049991798719,-0.013343856291351444,-0.00662538201653293,0
1177,0.04708000000000001,5.000378781950543,-0.014001435936796827,-0.007345082527941901,0
1178,0.04712000000000005,5.001036362253937,-0.010384747880516562,-0.0037904928161985024,0
1179,0.04716000000000009,4.99972120164681,-0.005781690331979852,0.0007504895643192667,0
1180,0.04719999999999991,4.99972120164681,-0.007096849634115457,-0.0006267210748483621,0
1181,0.04723999999999995,4.99972120164681,-0.009727168232258263,-0.003319066525197596,0
1182,0.04727999999999999,5.000049991798719,-0.00808321910937683,-0.0017371191164967624,0
1183,0.04732000000000003,5.000378781950543,-0.007754429284417372,-0.0014703052151383775,0
1184,0.04736000000000007,5.000378781950543,-0.007096849634115457,-0.0008746750459589468,0
1185,0.04740000000000011,4.99972120164681,-0.006768059808773,-0.000607807608024041,0
1186,0.04743999999999993,5.000049991798719,-0.003808951374948702,0.002289406182673214,0
1187,0.04747999999999997,4.99972120164681,-0.0024937920677107622,0.0035426992409513802,0
1188,0.04752000000000001,4.99972120164681,-0.0028225818947114484,0.0031520722083580813,0
1189,0.04756000000000005,4.99972120164681,-0.007425639459330238,-0.0015127928699811902,0
1190,0.04760000000000009,5.000049991798719,-0.0031513717215847087,0.0026996976937179815,0
1191,0.047639999999999905,5.000378781950543,-0.007096849634115457,-0.0013075264060939638,0
1192,0.047679999999999945,5.000707572102282,-0.0113711173519455,-0.00564350867806801,0
1193,0.047719999999999985,4.99972120164681,-0.011042327528263687,-0.005376401129747979,0
1194,0.047760000000000025,5.000378781950543,-0.011042327528263687,-0.005438050481417465,0
1195,0.047800000000000065,4.99972120164681,-0.0090695885834889,-0.003526927320452816,0
1196,0.047840000000000105,5.000049991798719,-0.013672646114138112,-0.008191566423636717,0
1197,0.04787999999999992,4.99972120164681,-0.020577232363083744,-0.015157699391184408,0
1198,0.04791999999999996,5.000049991798719,-0.022549971280973066,-0.017191949531852817,0
1199,0.04796,5.000049991798719,-0.026495449102891075,-0.021198902439611325,0
1200,0.04800000000000004,4.99972120164681,-0.026824238920549456,-0.021589130565838728,0
1201,0.04804000000000008,4.99972120164681,-0.03044092690630805,-0.025267219443352557,0
1202,0.0480799999999999,5.000049991798719,-0.035701563948709644,-0.03058921932195189,0
1203,0.04811999999999994,5.000049991798719,-0.04063341114600001,-0.03558239066194537,0
1204,0.04815999999999998,4.99972120164681,-0.04589404812443025,-0.040904312452461344,0
1205,0.04820000000000002,4.99972120164681,-0.0498395258365333,-0.044911035009732356,0
1206,0.04824000000000006,4.99972120164681,-0.05510016275699865,-0.050232876172977683,0
1207,0.0482800000000001,4.99972120164681,-0.05378500352999273,-0.048978879951731655,0
1208,0.04831999999999992,4.99972120164681,-0.05542895256342596,-0.05068395012011852,0
1209,0.04835999999999996,4.99972120164681,-0.05575774236972354,-0.05107381855763081,0
1210,0.0484,5.000378781950543,-0.056415321981929514,-0.05179243366524122,0
1211,0.04844000000000004,5.000049991798719,-0.057730481204784426,-0.05316858461648809,0
1212,0.04848000000000008,4.998406041038327,-0.05674411178783788,-0.052243162530595855,0
1213,0.0485199999999999,5.000707572102282,-0.05279863410837703,-0.04835858715541139,0
1214,0.04855999999999994,4.999392411494816,-0.054113793336938706,-0.049734603032923985,0
1215,0.04859999999999998,4.999063621342738,-0.056415321981929514,-0.05209694204389331,0
1216,0.04864000000000002,5.000707572102282,-0.05214105449331856,-0.047883438011549775,0
1217,0.04868000000000006,4.997748460733576,-0.05214105449331856,-0.04794415393228345,0
1218,0.0487200000000001,4.999063621342738,-0.05115468506975916,-0.04701845226902514,0
1219,0.048759999999999915,5.001365152405508,-0.05542895256342596,-0.05135333873859309,0
1220,0.048799999999999955,4.99972120164681,-0.05115468506975916,-0.04713964081339926,0
1221,0.048839999999999995,5.001036362253937,-0.04622283793448369,-0.042268313217086864,0
1222,0.048880000000000035,5.001036362253937,-0.046551627744407784,-0.0426575719153367,0
1223,0.048920000000000075,5.000049991798719,-0.05181226468559495,-0.0479786264740467,0
1224,0.048960000000000115,4.99972120164681,-0.054771372950441696,-0.050998100466417354,0
1225,0.04899999999999993,5.001036362253937,-0.054771372950441696,-0.05105841368572321,0
1226,0.04903999999999997,4.99972120164681,-0.059045640425562415,-0.05539294125469718,0
1227,0.04908000000000001,5.000049991798719,-0.060689589448612954,-0.057097096629905794,0
1228,0.04912000000000005,5.000049991798719,-0.06200474866471477,-0.0584724078412273,0
1229,0.04916000000000009,5.000049991798719,-0.06627901610267752,-0.06280677230323518,0
1230,0.04919999999999991,5.000049991798719,-0.06989570391761903,-0.06648350155782567,0
1231,0.04923999999999995,5.000378781950543,-0.0715396529191989,-0.06818743580245881,0
1232,0.04927999999999999,4.99972120164681,-0.07318360191751903,-0.06989131323606652,0
1233,0.04932000000000003,5.000049991798719,-0.07680028970234042,-0.0735678720382768,0
1234,0.04936000000000007,4.99972120164681,-0.07712907950017713,-0.07395647482651505,0
1235,0.04940000000000011,5.000049991798719,-0.07745786929788322,-0.0743450189795984,0
1236,0.04943999999999993,4.99972120164681,-0.07548513050968754,-0.07243197530477805,0
1237,0.04947999999999997,4.999392411494816,-0.07088207331895803,-0.06788855337951101,0
1238,0.04952000000000001,4.99972120164681,-0.06463506709067811,-0.06170112196394381,0
1239,0.04956000000000005,4.999392411494816,-0.06036079964426265,-0.057486368273735974,0
1240,0.04960000000000009,5.000049991798719,-0.04720920736386795,-0.04439422809037738,0
1241,0.049639999999999906,5.000378781950543,-0.04129099077011207,-0.03853540133291569,0
1242,0.049679999999999946,5.000049991798719,-0.026824238920549456,-0.02412797645843836,0
1243,0.049719999999999986,4.99972120164681,-0.014987805404005308,-0.01235080645641434,0
1244,0.049760000000000026,4.99972120164681,0.0004653163810297567,0.0030431158729038454,0
1245,0.049800000000000066,4.99972120164681,0.012630540111881347,0.015149204803954567,0
1246,0.049840000000000106,5.000049991798719,0.025782133529704057,0.028241728673872507,0
1247,0.049879999999999924,4.99972120164681,0.037618567778495635,0.040019159221495626,0
1248,0.049919999999999964,5.000049991798719,0.04287920527475757,0.04522085945701855,0
1249,0.049960000000000004,5.000049991798719,0.05800353825532628,0.0602863222098165,0
1250,0.050000000000000044,5.000049991798719,0.06392175558060653,0.06614573693167164,0
1251,0.050040000000000084,5.000049991798719,0.07510061063847716,0.07726585760067162,0
1252,0.0500799999999999,5.000049991798719,0.08036124836247038,0.08246782973938188,0
1253,0.05011999999999994,4.99972120164681,0.08595067597897872,0.08799866116204544,0
1254,0.05015999999999998,4.99972120164681,0.09417042253877159,0.09615988150609232,0
1255,0.05020000000000002,5.000049991798719,0.09088252390559022,0.09281352722072744,0
1256,0.05024000000000006,5.000378781950543,0.09680074145419928,0.09867336026497513,0
1257,0.0502800000000001,5.000049991798719,0.09680074145419928,0.09861504749148432,0
1258,0.05031999999999992,5.000378781950543,0.09680074145419928,0.0985568070306944,0
1259,0.05035999999999996,5.000378781950543,0.09581437185998914,0.09751226986900034,0
1260,0.0504,5.000049991798719,0.09581437185998914,0.09745417577419546,0
1261,0.05044000000000004,5.000707572102282,0.09581437185998914,0.0973961557302036,0
1262,0.05048000000000008,4.999063621342738,0.09515679213113215,0.09668063058505585,0
1263,0.0505199999999999,5.000049991798719,0.09088252390559022,0.09234849214655942,0
1264,0.05055999999999994,5.000049991798719,0.08627946583988738,0.08768763964561363,0
1265,0.05059999999999998,4.99972120164681,0.08364914695608275,0.08499960267738596,0
1266,0.05064000000000002,5.000378781950543,0.07674455992381307,0.07803737448334777,0
1267,0.05068000000000006,4.99972120164681,0.07345666135624548,0.07469191224722005,0
1268,0.0507200000000001,5.000378781950543,0.07049755265605667,0.07167531794094584,0
1269,0.050759999999999916,5.000378781950543,0.07247029178839723,0.07359065009764774,0
1270,0.050799999999999956,5.000049991798719,0.06589449469801162,0.06695752522874099,0
1271,0.050839999999999996,5.000049991798719,0.06030506721035353,0.0613108497250418,0
1272,0.050880000000000036,5.000049991798719,0.05471563975876172,0.055664254583936305,0
1273,0.050920000000000076,4.99972120164681,0.050770161579389975,0.05166168960430378,0
1274,0.050960000000000116,5.000049991798719,0.052414110818605225,0.053248633493907856,0
1275,0.050999999999999934,5.000378781950543,0.04189283574175878,0.042670435078161026,0
1276,0.051039999999999974,4.999392411494816,0.04287920527475757,0.043599963841689106,0
1277,0.051080000000000014,5.000049991798719,0.0392625169926218,0.039926517916882134,0
1278,0.051120000000000054,5.000378781950543,0.03564582872569445,0.036253155690097086,0
1279,0.051160000000000094,4.99972120164681,0.033015509995673945,0.03356624723768388,0
1280,0.05119999999999991,4.99972120164681,0.025782133529704057,0.02627636584006856,0
1281,0.05123999999999995,5.000378781950543,0.027097292882612076,0.02753510560398488,0
1282,0.05127999999999999,5.000707572102282,0.021507865646709548,0.02188934467226842,0
1283,0.05132000000000003,4.99972120164681,0.021507865646709548,0.02183309741876712,0
1284,0.05136000000000007,4.999392411494816,0.01756238761983417,0.01783145912844237,0
1285,0.05140000000000011,4.99972120164681,0.01328811977796078,0.013501118559508599,0
1286,0.05143999999999993,5.000049991798719,0.02085028597429857,0.02100730011010323,0
1287,0.05147999999999997,5.000378781950543,0.013616909611190692,0.013718027726082202,0
1288,0.05152000000000001,5.000049991798719,0.012630540111881347,0.012675851372780426,0
1289,0.05156000000000005,5.000049991798719,0.01032901128459894,0.010318605399088507,0
1290,0.05160000000000009,5.000049991798719,0.009342641789095676,0.009276609003985893,0
1291,0.05163999999999991,4.99972120164681,0.007041112970698912,0.006919544070585752,0
1292,0.05167999999999995,5.000378781950543,0.005725953648695714,0.0055489399545130685,0
1293,0.05171999999999999,4.99972120164681,0.006054743479005864,0.0058223768465712825,0
1294,0.05176000000000003,5.000049991798719,0.01065780111668721,0.010370173935241117,0
1295,0.05180000000000007,4.99972120164681,0.01821996728971463,0.017877172480453007,0
1296,0.05184000000000011,4.999392411494816,0.017233597785083862,0.01683572879968464,0
1297,0.051879999999999926,5.000378781950543,0.015918438447348998,0.015465589266492143,0
1298,0.051919999999999966,5.000049991798719,0.008685062126061585,0.00817732725794297,0
1299,0.051960000000000006,5.000707572102282,0.007041112970698912,0.006478587449537804,0
1300,0.052000000000000046,5.000707572102282,0.0021092655236763236,0.001492044908216611,0
1301,0.052040000000000086,5.000049991798719,0.004739584158527918,0.004067764530533077,0
1302,0.052079999999999904,4.999392411494816,0.007041112970698912,0.006314790933440749,0
1303,0.052119999999999944,5.000707572102282,0.011315380781244458,0.01053465345798553,0
1304,0.052159999999999984,5.000378781950543,0.012301750279031881,0.011466715311501945,0
1305,0.052200000000000024,4.999392411494816,0.014603279111640999,0.013714034658507186,0
1306,0.052240000000000064,4.99972120164681,0.012301750279031881,0.011358395014362796,0
1307,0.052280000000000104,4.999392411494816,0.011972960446309217,0.010975593558032876,0
1308,0.05231999999999992,5.000049991798719,0.012301750279031881,0.011250471467387481,0
1309,0.05235999999999996,5.000707572102282,0.01032901128459894,0.009223920760582545,0
1310,0.0524,4.99972120164681,0.014274489278030808,0.01311568776183502,0
1311,0.05244000000000004,5.000049991798719,0.01756238761983417,0.01634997633928162,0
1312,0.05248000000000008,5.000049991798719,0.016904807950460177,0.015638888639431116,0
1313,0.0525199999999999,4.99972120164681,0.018548757124844717,0.017229432021698556,0
1314,0.05255999999999994,5.000378781950543,0.019206336795484613,0.017833708641475474,0
1315,0.05259999999999998,4.99972120164681,0.015918438447348998,0.014492610485035189,0
1316,0.05264000000000002,5.000378781950543,0.021507865646709548,0.02002894161835707,0
1317,0.05268000000000006,5.000378781950543,0.01821996728971463,0.016688051435694788,0
1318,0.0527200000000001,5.000049991798719,0.019863916466630674,0.018279113523811882,0
1319,0.05275999999999992,5.000049991798719,0.024466974178816228,0.022829389378949926,0
1320,0.05279999999999996,5.000707572102282,0.024466974178816228,0.022776713246916852,0
1321,0.05284,5.000049991798719,0.021836655483104705,0.020093824635824063,0
1322,0.05288000000000004,5.000049991798719,0.023480604666976643,0.02168531061097257,0
1323,0.05292000000000008,4.99972120164681,0.02019270630239349,0.018345056232692794,0
1324,0.052959999999999896,4.99972120164681,0.02315181482994949,0.021251916428305304,0
1325,0.052999999999999936,5.000378781950543,0.02019270630239349,0.018240667735636887,0
1326,0.053039999999999976,5.000049991798719,0.019863916466630674,0.017859846385016705,0
1327,0.053080000000000016,5.000049991798719,0.02315181482994949,0.02109582236549737,0
1328,0.053120000000000056,4.999392411494816,0.02085028597429857,0.018742480739126266,0
1329,0.053160000000000096,4.99972120164681,0.022823024993048696,0.020663517077701962,0
1330,0.053199999999999914,5.000378781950543,0.0323579303144281,0.030146830286203873,0
1331,0.053239999999999954,5.000049991798719,0.037289777936047624,0.03502719683731187,0
1332,0.053279999999999994,4.99972120164681,0.0323579303144281,0.030043979660928193,0
1333,0.053320000000000034,5.000049991798719,0.027754872559823354,0.02538966433899492,0
1334,0.053360000000000074,5.000378781950543,0.025782133529704057,0.023365780198972355,0
1335,0.053400000000000114,5.000378781950543,0.02676850304419573,0.024301117529271526,0
1336,0.05343999999999993,4.99972120164681,0.025453343691792682,0.02293503938496276,0
1337,0.05347999999999997,5.000378781950543,0.023480604666976643,0.02091149542538897,0
1338,0.05352000000000001,4.99972120164681,0.023480604666976643,0.020860804810920022,0
1339,0.05356000000000005,5.000378781950543,0.027754872559823354,0.0250844968710019,0
1340,0.05360000000000009,5.000049991798719,0.027754872559823354,0.02503403627962554,0
1341,0.05363999999999991,5.000378781950543,0.03268672015498804,0.029915538982750393,0
1342,0.05367999999999995,4.99972120164681,0.029070031915759978,0.026248622007025484,0
1343,0.05371999999999999,5.000378781950543,0.027426082721154613,0.02455456068592582,0
1344,0.05376000000000003,4.99972120164681,0.027097292882612076,0.02417577578359903,0
1345,0.05380000000000007,4.99972120164681,0.027754872559823354,0.02478347791068633,0
1346,0.05384000000000011,5.000378781950543,0.03202914047399413,0.029007986237581246,0
1347,0.05387999999999993,5.000378781950543,0.028083662398618273,0.025012866985197946,0
1348,0.05391999999999997,5.000049991798719,0.031700350633686175,0.02858003289917442,0
1349,0.05396000000000001,5.000378781950543,0.031700350633686175,0.028530629877868856,0
1350,0.05400000000000005,5.000378781950543,0.024466974178816228,0.0212479701435661,0
1351,0.05404000000000009,5.000378781950543,0.031042770953448276,0.027774603820936876,0
1352,0.054079999999999906,4.99972120164681,0.03400187951848738,0.030684669909391914,0
1353,0.054119999999999946,5.000378781950543,0.029070031915759978,0.025703900887465297,0
1354,0.054159999999999986,5.000049991798719,0.0264397132059056,0.023024782250701266,0
1355,0.054200000000000026,5.000049991798719,0.03334429983648583,0.02988069087975819,0
1356,0.054240000000000066,5.000049991798719,0.03597461856751347,0.03246245396593269,0
1357,0.054280000000000106,5.000707572102282,0.03433066935967702,0.03077007189937913,0
1358,0.054319999999999924,5.000049991798719,0.0323579303144281,0.028749023209192037,0
1359,0.054359999999999964,4.99972120164681,0.03433066935967702,0.03067357624909703,0
1360,0.054400000000000004,4.99972120164681,0.03597461856751347,0.03226946351516669,0
1361,0.054440000000000044,5.000049991798719,0.03400187951848738,0.0302487870100967,0
1362,0.054480000000000084,4.99972120164681,0.03334429983648583,0.02954339477807811,0
1363,0.0545199999999999,5.000049991798719,0.03663219825152894,0.03278360596758846,0
1364,0.05455999999999994,5.000378781950543,0.03893372714954513,0.03503757338116239,0
1365,0.05459999999999998,5.000049991798719,0.03663219825152894,0.03268860915454465,0
1366,0.05464000000000002,5.000378781950543,0.03893372714954513,0.03494282929268946,0
1367,0.05468000000000006,5.000378781950543,0.04222162558596615,0.038183545948993564,0
1368,0.0547200000000001,5.000049991798719,0.036303408409458296,0.03221827438127769,0
1369,0.05475999999999992,4.99972120164681,0.036303408409458296,0.03217134778625865,0
1370,0.05479999999999996,5.000049991798719,0.041564045897676996,0.03738518688104858,0
1371,0.05484,4.99972120164681,0.04287920527475757,0.038653676469808565,0
1372,0.05488000000000004,5.000049991798719,0.03860493730659416,0.034332867720062825,0
1373,0.05492000000000008,5.000378781950543,0.039920096679152195,0.0356016157175147,0
1374,0.0549599999999999,4.99972120164681,0.03860493730659416,0.03424017477416806,0
1375,0.05499999999999994,4.99972120164681,0.04255041543029908,0.03813950152734232,0
1376,0.05503999999999998,5.000378781950543,0.04189283574175878,0.03743590106256414,0
1377,0.05508000000000002,4.99972120164681,0.04090646620989019,0.036403641740875306,0
1378,0.05512000000000006,5.000378781950543,0.04255041543029908,0.038001832548092085,0
1379,0.0551600000000001,5.000378781950543,0.041564045897676996,0.036969836367197716,0
1380,0.055199999999999916,5.001036362253937,0.04222162558596615,0.03758192155850311,0
1381,0.055239999999999956,4.998734831190575,0.0392625169926218,0.03457745100390484,0
1382,0.055279999999999996,5.000378781950543,0.0392625169926218,0.03453222196089065,0
1383,0.055320000000000036,4.99972120164681,0.037947357621069405,0.03317196684513801,0
1384,0.055360000000000076,4.999392411494816,0.04090646620989019,0.03608611336720694,0
1385,0.055400000000000116,4.99972120164681,0.041564045897676996,0.03669886504238074,0
1386,0.055439999999999934,5.000049991798719,0.04452315449893275,0.039613280059904596,0
1387,0.055479999999999974,4.99972120164681,0.03860493730659416,0.03365050408550514,0
1388,0.055520000000000014,5.000378781950543,0.04255041543029908,0.03755155859965398,0
1389,0.055560000000000054,5.000049991798719,0.04189283574175878,0.036849690842936,0
1390,0.055600000000000094,5.000049991798719,0.04189283574175878,0.03680553868304628,0
1391,0.05563999999999991,5.000378781950543,0.04222162558596615,0.037090312640593426,0
1392,0.05567999999999995,5.000049991798719,0.048139842803156765,0.04296465060732306,0
1393,0.05571999999999999,4.99972120164681,0.04978379203736312,0.044564857588261786,0
1394,0.05576000000000003,5.000049991798719,0.04616710372624461,0.0409045643800835,0
1395,0.05580000000000007,5.000378781950543,0.04419436465384674,0.038888358123865034,0
1396,0.05584000000000011,4.99972120164681,0.04682468341804723,0.04147534777252842,0
1397,0.05587999999999993,5.000378781950543,0.043865574808886185,0.03847304846916736,0
