,seconds,Trig,EMG_amplitude,EMG_amplitude_filter,peaks
0,0.0,4.99972120164681,0.003424424840084442,0.02691725809430561,0
1,4.0000000000040004e-05,5.000049991798719,0.0027668451816259126,0.026215788097751595,0
2,8.000000000008001e-05,5.000378781950543,0.007369902801517392,0.030774909013013073,0
3,0.00011999999999989797,5.000378781950543,0.011972960446309217,0.03533398371312041,0
4,0.00015999999999993797,5.000378781950543,0.01295932994485767,0.03627632415385586,0
5,0.00019999999999997797,4.999392411494816,0.015260858779241576,0.03853377794467008,0
6,0.00024000000000001798,5.000378781950543,0.017233597785083862,0.040462396049003715,0
7,0.000280000000000058,5.000378781950543,0.021507865646709548,0.044692497279445326,0
8,0.000320000000000098,4.99972120164681,0.021836655483104705,0.044977074883690335,0
9,0.00035999999999991594,5.000378781950543,0.018548757124844717,0.04164491882146931,0
10,0.00039999999999995595,5.000049991798719,0.022494235156274286,0.04554609380672795,0
11,0.00043999999999999595,5.000049991798719,0.022823024993048696,0.04583053538516817,0
12,0.00048000000000003595,4.99972120164681,0.025782133529704057,0.0487452505818183,0
13,0.000520000000000076,4.999392411494816,0.033015509995673945,0.05593418875704969,0
14,0.0005599999999998939,5.000378781950543,0.03564582872569445,0.05852002437698165,0
15,0.0005999999999999339,5.000049991798719,0.0353170388840013,0.05814670673767847,0
16,0.0006399999999999739,5.000049991798719,0.03827614746376892,0.061061242964588286,0
17,0.0006800000000000139,5.000049991798719,0.03959130683582415,0.06233178556125653,0
18,0.0007200000000000539,5.000378781950543,0.04452315449893275,0.06721897215961248,0
19,0.0007600000000000939,5.000378781950543,0.04912621234330475,0.07177732478347436,0
20,0.0007999999999999119,5.000378781950543,0.05142774127470057,0.07403410447265521,0
21,0.0008399999999999519,5.000378781950543,0.06063385706157101,0.08319542713010267,0
22,0.0008799999999999919,5.000049991798719,0.06063385706157101,0.08315059024841254,0
23,0.0009200000000000319,5.000378781950543,0.06227780631952985,0.08474965900779884,0
24,0.0009600000000000719,5.001036362253937,0.0757581903522391,0.09818511906088168,0
25,0.001000000000000112,5.000049991798719,0.0760869802093063,0.09846894159354071,0
26,0.0010399999999999299,5.001036362253937,0.08167640779842875,0.10401335865018854,0
27,0.0010799999999999699,5.001365152405508,0.08693704556207577,0.10922894281045299,0
28,0.0011200000000000099,5.000378781950543,0.09219768335738154,0.11444448406906975,0
29,0.0011600000000000499,4.99972120164681,0.09581437185998914,0.11801603323972608,0
30,0.0012000000000000899,5.000049991798719,0.09154010363123893,0.11369658302224932,0
31,0.0012399999999999078,5.000049991798719,0.10304774890994019,0.12515900379437814,0
32,0.0012799999999999478,4.99972120164681,0.10173258944188096,0.12379857744127215,0
33,0.0013199999999999878,4.99972120164681,0.10008864010957542,0.12210931898525866,0
34,0.0013600000000000279,5.000378781950543,0.09877348064594688,0.12074880829951568,0
35,0.0014000000000000679,4.99972120164681,0.10107500970858954,0.12300494418233367,0
36,0.0014400000000001079,5.000049991798719,0.0964719515893393,0.11835645106668663,0
37,0.0014799999999999258,5.000378781950543,0.09154010363123893,0.11337912643719712,0
38,0.0015199999999999658,5.000049991798719,0.08233398751715135,0.1041274921187491,0
39,0.0015600000000000058,5.000378781950543,0.08233398751715135,0.10408193252387918,0
40,0.0016000000000000458,5.001693942556992,0.07279908164422239,0.0945014258084732,0
41,0.0016400000000000858,5.000049991798719,0.06655207440480995,0.08820877662231957,0
42,0.0016799999999999038,4.99972120164681,0.05734595855501376,0.07895697786530101,0
43,0.0017199999999999438,5.000049991798719,0.05340048036363608,0.07496577595044274,0
44,0.0017599999999999838,5.000049991798719,0.04222162558596615,0.06374115677769646,0
45,0.0018000000000000238,5.000049991798719,0.03433066935967702,0.055804395629837134,0
46,0.0018400000000000638,5.000049991798719,0.031700350633686175,0.053128231601323225,0
47,0.0018800000000001038,4.99972120164681,0.019206336795484613,0.040588332225625454,0
48,0.0019199999999999218,5.000049991798719,0.015260858779241576,0.03659692858333119,0
49,0.0019599999999999618,4.99972120164681,0.006054743479005864,0.027344847715345483,0
50,0.0020000000000000018,4.99972120164681,-0.0005210531030302584,0.020723045771154622,0
51,0.0020400000000000418,5.000049991798719,-0.008412008934208556,0.012786044931148469,0
52,0.002080000000000082,5.000049991798719,-0.014659015581730453,0.006492953776294556,0
53,0.0021199999999998997,5.000049991798719,-0.0228787611001723,-0.0017729155993774608,0
54,0.0021599999999999397,5.000049991798719,-0.026166659285104213,-0.0051069768423949065,0
55,0.0021999999999999797,5.000049991798719,-0.03603035376276496,-0.015016873429517255,0
56,0.0022400000000000198,5.000049991798719,-0.04030462133375036,-0.019337382011424785,0
57,0.0022800000000000598,5.000049991798719,-0.04293493982813261,-0.022013980267838157,0
58,0.0023200000000000998,5.000049991798719,-0.047537997173404054,-0.026663355975462412,0
59,0.0023599999999999177,5.000049991798719,-0.053456213722917104,-0.03262792933642729,0
60,0.0023999999999999577,5.000378781950543,-0.06430627728788789,-0.043524388010291154,0
61,0.0024399999999999977,5.000049991798719,-0.06496385689333826,-0.04422840086998339,0
62,0.0024800000000000377,4.99972120164681,-0.07384118151593398,-0.05315219673964286,0
63,0.0025200000000000777,4.99972120164681,-0.08074576726775658,-0.06010329157839006,0
64,0.0025599999999998957,4.99972120164681,-0.07745786929788322,-0.05686194038190716,0
65,0.0025999999999999357,4.999063621342738,-0.08534882440360501,-0.0647994797936566,0
66,0.0026399999999999757,5.000378781950543,-0.09060946109885244,-0.07010673817330705,0
67,0.0026800000000000157,5.000049991798719,-0.09652767734085597,-0.07607161332339407,0
68,0.0027200000000000557,5.000707572102282,-0.1024458935402696,-0.08203652549944411,0
69,0.0027600000000000957,4.999392411494816,-0.10672016076886852,-0.08635752561767218,0
70,0.0027999999999999137,4.999063621342738,-0.11658385428821218,-0.0962679887836456,0
71,0.0028399999999999537,5.001365152405508,-0.11329595646164246,-0.09302689720428252,0
72,0.0028799999999999937,4.998406041038327,-0.11559748494162976,-0.09537526837519818,0
73,0.0029200000000000337,4.999063621342738,-0.11921417253994292,-0.09903883495087545,0
74,0.0029600000000000737,4.998406041038327,-0.11757022363360382,-0.09744180115061976,0
75,0.0029999999999998916,5.001693942556992,-0.12842028635421754,-0.10833881494788952,0
76,0.0030399999999999316,5.000049991798719,-0.1310506045677572,-0.11101612005008159,0
77,0.0030799999999999716,4.99972120164681,-0.12874907613137498,-0.10876161415534215,0
78,0.0031200000000000117,5.001693942556992,-0.12809149657692737,-0.108151092636093,0
79,0.0031600000000000517,5.000707572102282,-0.1297354454620503,-0.1098421348901071,0
80,0.0032000000000000917,4.99972120164681,-0.1290778659083996,-0.10923168387874937,0
81,0.0032399999999999096,5.000378781950543,-0.12546117835382642,-0.10566215987915281,0
82,0.0032799999999999496,5.000378781950543,-0.12184449078319924,-0.10209267071504069,0
83,0.0033199999999999896,5.000049991798719,-0.12085812144297166,-0.1011535344712948,0
84,0.0033600000000000296,5.000378781950543,-0.11789901341513638,-0.09824169406790959,0
85,0.0034000000000000696,5.000378781950543,-0.10737774034052165,-0.08776772298328898,0
86,0.0034400000000001096,4.99972120164681,-0.10047315481186896,-0.08091047364732447,0
87,0.0034799999999999276,5.000049991798719,-0.09521251817964406,-0.07569720724720647,0
88,0.0035199999999999676,5.000378781950543,-0.08600640399234578,-0.06653849716773355,0
89,0.0035600000000000076,5.000049991798719,-0.07943060808137585,-0.06001013907618243,0
90,0.0036000000000000476,4.99972120164681,-0.07121086311914367,-0.051837865480413296,0
91,0.0036400000000000876,4.99972120164681,-0.06101837925283336,-0.04169288636263704,0
92,0.0036799999999999056,4.99972120164681,-0.05378500352999273,-0.03450704860500452,0
93,0.0037199999999999456,5.000049991798719,-0.04523646850393555,-0.026006084595009388,0
94,0.0037599999999999856,5.000378781950543,-0.03767430283110791,-0.018491522822854618,0
95,0.0038000000000000256,5.000378781950543,-0.03044092690630805,-0.01130578351667267,0
96,0.0038400000000000656,4.99972120164681,-0.021892391642189743,-0.002804917422029226,0
97,0.0038800000000001056,5.000707572102282,-0.01630296469182467,0.002736807975514029,0
98,0.0039199999999999235,5.000049991798719,-0.006439269983302923,0.012552768915798498,0
99,0.0039599999999999635,4.99972120164681,-0.0024937920677107622,0.016450481016090538,0
100,0.0040000000000000036,4.99972120164681,0.005397163818512657,0.024293639208724346,0
101,0.0040400000000000436,4.99972120164681,0.01032901128459894,0.029177657272125228,0
102,0.0040800000000000836,5.001036362253937,0.01756238761983417,0.036363172665192886,0
103,0.0041199999999999015,4.99972120164681,0.022823024993048696,0.04157591772679086,0
104,0.0041599999999999415,5.000049991798719,0.025124553854007567,0.04382952307713661,0
105,0.0041999999999999815,5.000378781950543,0.031700350633686175,0.050357365318076726,0
106,0.0042400000000000215,4.99972120164681,0.03400187951848738,0.05261090880730372,0
107,0.0042800000000000615,5.000707572102282,0.03860493730659416,0.05716595051470815,0
108,0.0043200000000001015,4.99972120164681,0.04222162558596615,0.06073459220037469,0
109,0.0043599999999999195,5.000049991798719,0.04419436465384674,0.06265925433408881,0
110,0.0043999999999999595,4.99972120164681,0.04715347326413659,0.0655702558427096,0
111,0.0044399999999999995,4.999392411494816,0.050112581884580176,0.06848122736735582,0
112,0.0044800000000000395,4.999392411494816,0.05044137173192248,0.06876185029856197,0
113,0.0045200000000000795,5.000049991798719,0.051098951426982675,0.06937123343135182,0
114,0.0045599999999998975,4.99972120164681,0.05635958900548195,0.07458364497606579,0
115,0.0045999999999999375,5.000049991798719,0.05898990780673173,0.07716570844704859,0
116,0.0046399999999999775,5.000378781950543,0.05866111795613836,0.07678863414515319,0
117,0.0046800000000000175,4.99972120164681,0.06162022661597208,0.07969942940850931,0
118,0.0047200000000000575,4.999392411494816,0.05997627735926084,0.07800713798641681,0
119,0.0047600000000000975,5.000378781950543,0.061949016467688606,0.07993150633724345,0
120,0.0047999999999999154,4.999392411494816,0.06819602367398483,0.08613011437081404,0
121,0.0048399999999999554,5.000378781950543,0.061291436764380286,0.0791771000508656,0
122,0.0048799999999999955,4.999392411494816,0.05997627735926084,0.07781348517570075,0
123,0.0049200000000000355,4.99972120164681,0.06556570484479929,0.08335442930981891,0
124,0.0049600000000000755,4.99972120164681,0.06326417587580183,0.08100438928676222,0
125,0.004999999999999893,4.99972120164681,0.05570200930641887,0.07339368413982575,0
126,0.005039999999999933,5.000049991798719,0.05800353825532628,0.07564664716723823,0
127,0.005079999999999973,5.000049991798719,0.04846863264974746,0.06606314847618361,0
128,0.005120000000000013,5.000049991798719,0.04748226311035131,0.06502815886769868,0
129,0.005160000000000053,5.000049991798719,0.05504442960785576,0.07254167849327606,0
130,0.0052000000000000934,5.000049991798719,0.045180734189481195,0.06262930958131718,0
131,0.005239999999999911,5.000049991798719,0.04781105295669137,0.06521092841487264,0
132,0.005279999999999951,4.99972120164681,0.04452315449893275,0.06187430376538108,0
133,0.005319999999999991,5.000378781950543,0.04320799511934159,0.06051039211837584,0
134,0.005360000000000031,4.99972120164681,0.0392625169926218,0.05651613583136224,0
135,0.005400000000000071,5.000707572102282,0.036303408409458296,0.05350822337823057,0
136,0.005440000000000111,4.99972120164681,0.033673089677423634,0.050829075250162226,0
137,0.005479999999999929,5.000378781950543,0.030385191273714543,0.0474923221083656,0
138,0.005519999999999969,5.000378781950543,0.030385191273714543,0.04744344221263817,0
139,0.005560000000000009,4.99972120164681,0.03334429983648583,0.050353645906857813,0
140,0.005600000000000049,5.000049991798719,0.029070031915759978,0.04603044832997284,0
141,0.005640000000000089,4.99972120164681,0.030385191273714543,0.04729665342977803,0
142,0.005679999999999907,5.000378781950543,0.023480604666976643,0.0403430881489176,0
143,0.005719999999999947,4.99972120164681,0.022823024993048696,0.03963650557131032,0
144,0.005759999999999987,5.000378781950543,0.02019270630239349,0.03695715993423403,0
145,0.005800000000000027,5.000378781950543,0.020521496138282788,0.03723689896817367,0
146,0.005840000000000067,4.99972120164681,0.018548757124844717,0.03521508548486818,0
147,0.005880000000000107,5.000378781950543,0.022494235156274286,0.039111465566520356,0
148,0.005919999999999925,5.000378781950543,0.026110923367741706,0.04267903253670458,0
149,0.005959999999999965,5.000049991798719,0.02085028597429857,0.0373692507992724,0
150,0.006000000000000005,5.000049991798719,0.017233597785083862,0.033703395352557876,0
151,0.006040000000000045,5.000049991798719,0.0030956350107915753,0.01951624259684463,0
152,0.006080000000000085,5.000378781950543,0.0021092655236763236,0.0184806605943707,0
153,0.006119999999999903,5.000378781950543,0.005397163818512657,0.02171932403028728,0
154,0.006159999999999943,5.000378781950543,0.011644170613713423,0.027917073813776457,0
155,0.006199999999999983,4.999392411494816,0.019206336795484613,0.03542996102220543,0
156,0.006240000000000023,5.000049991798719,0.015589648613231935,0.03176397209653247,0
157,0.006280000000000063,4.99972120164681,0.01756238761983417,0.03368738878157967,0
158,0.006320000000000103,5.000378781950543,0.01328811977796078,0.029363777232349893,0
159,0.006359999999999921,5.000049991798719,0.011315380781244458,0.027341673335198775,0
160,0.006399999999999961,5.000378781950543,0.006712323140007484,0.022689229793560396,0
161,0.006440000000000001,5.000378781950543,0.007369902801517392,0.023297402748202307,0
162,0.006480000000000041,5.000378781950543,0.010000221452637598,0.025878294079875557,0
163,0.006520000000000081,5.000049991798719,0.01065780111668721,0.02648642600617381,0
164,0.006559999999999899,5.000378781950543,0.009342641789095676,0.025121798717187352,0
165,0.006599999999999939,5.000049991798719,0.009342641789095676,0.025072310727195322,0
166,0.006639999999999979,5.000378781950543,0.003424424840084442,0.019104585955026343,0
167,0.006680000000000019,5.000049991798719,0.004082004499051814,0.01971263815348595,0
168,0.006720000000000059,5.000378781950543,0.003424424840084442,0.01900551159286014,0
169,0.006760000000000099,5.000378781950543,-0.0005210531030302584,0.015010467503518615,0
170,0.006799999999999917,4.99972120164681,-0.001178632758433426,0.014303302654284792,0
171,0.006839999999999957,5.000378781950543,-0.0028225818947114484,0.012609749473918427,0
172,0.006879999999999997,5.000378781950543,-0.004137741201439435,0.011244967470571465,0
173,0.006920000000000037,5.000049991798719,-0.005452900506126915,0.009880167014841661,0
174,0.006960000000000077,5.000378781950543,-0.007096849634115457,0.008186558479874248,0
175,0.006999999999999895,5.000378781950543,-0.008412008934208556,0.006821721715731373,0
176,0.007039999999999935,5.001036362253937,-0.01301506646843685,0.0021689688596261483,0
177,0.007079999999999975,4.99972120164681,-0.011042327528263687,0.004091994819716359,0
178,0.007120000000000015,5.000378781950543,-0.01597417487006185,-0.0008895829603729304,0
179,0.007160000000000055,4.99972120164681,-0.014330225759327644,0.0007046184542357434,0
180,0.007200000000000095,4.99972120164681,-0.01564538504817102,-0.0006603055878185715,0
181,0.007239999999999913,5.000378781950543,-0.012686276645394332,0.0022490212057853162,0
182,0.007279999999999953,5.000707572102282,-0.012357486822223915,0.0025280127653184298,0
183,0.007319999999999993,5.000049991798719,-0.013343856291351444,0.0014918285799594942,0
184,0.007360000000000033,5.000707572102282,-0.0005210531030302584,0.014264800801697834,0
185,0.007400000000000073,5.000049991798719,-0.0166317545134594,-0.001895747623051395,0
186,0.007440000000000113,5.000378781950543,-0.025837869467188898,-0.011151725435853348,0
187,0.007479999999999931,5.000049991798719,-0.030769716722423582,-0.016133451191557888,0
188,0.007519999999999971,4.999392411494816,-0.030112137090063842,-0.015525765497341172,0
189,0.007560000000000011,5.000378781950543,-0.026824238920549456,-0.012287776499550193,0
190,0.007600000000000051,5.000378781950543,-0.02090602218305261,-0.00641948396289652,0
191,0.007640000000000091,5.000378781950543,-0.017946913798717698,-0.0035103146036968673,0
192,0.007679999999999909,4.99972120164681,-0.017618123977595282,-0.0032314784268078593,0
193,0.007719999999999949,5.000049991798719,-0.021234812002893247,-0.006898134509877921,0
194,0.007759999999999989,5.000378781950543,-0.013343856291351444,0.000942838936277255,0
195,0.007800000000000029,5.000049991798719,-0.022221181461645576,-0.007984482500729827,0
196,0.00784000000000007,5.001036362253937,-0.02090602218305261,-0.006719333283524743,0
197,0.00788000000000011,4.99972120164681,-0.025509079649145103,-0.01137241439866623,0
198,0.007919999999999927,5.000049991798719,-0.021234812002893247,-0.007148183781749078,0
199,0.007959999999999967,4.99972120164681,-0.01991965272276132,-0.0058830747035012974,0
200,0.008000000000000007,5.000049991798719,-0.018933283261316228,-0.0049467684083934794,0
201,0.008040000000000047,5.000049991798719,-0.017946913798717698,-0.004010474868129832,0
202,0.008080000000000087,5.000378781950543,-0.02090602218305261,-0.007019671721983197,0
203,0.008119999999999905,5.000049991798719,-0.0228787611001723,-0.009042511446633178,0
204,0.008159999999999945,4.99972120164681,-0.024522710194243194,-0.010736573476717536,0
205,0.008199999999999985,5.000049991798719,-0.01564538504817102,-0.0019093731852571037,0
206,0.008240000000000025,4.99972120164681,-0.01597417487006185,-0.0022882995701176655,0
207,0.008280000000000065,5.000049991798719,-0.02090602218305261,-0.007270294943841283,0
208,0.008320000000000105,5.000049991798719,-0.02090602218305261,-0.007320454291388626,0
209,0.008359999999999923,5.000049991798719,-0.017618123977595282,-0.004082726508991486,0
210,0.008399999999999963,5.000049991798719,-0.018933283261316228,-0.005448067079631674,0
211,0.008440000000000003,5.000378781950543,-0.017289334156344746,-0.0038543099134333465,0
212,0.008480000000000043,5.000049991798719,-0.014659015581730453,-0.0012741937170904702,0
213,0.008520000000000083,4.999392411494816,-0.01301506646843685,0.0003195427911387369,0
214,0.008559999999999901,5.000049991798719,-0.014001435936796827,-0.0007170492960245564,0
215,0.008599999999999941,5.000049991798719,-0.014987805404005308,-0.0017536511823732746,0
216,0.008639999999999981,5.000049991798719,-0.014330225759327644,-0.0011463135434236875,0
217,0.008680000000000021,5.000378781950543,-0.014001435936796827,-0.000867775099113486,0
218,0.008720000000000061,5.000049991798719,-0.012686276645394332,0.00039712365601652505,0
219,0.008760000000000101,5.000378781950543,-0.0090695885834889,0.003963542238382748,0
220,0.008799999999999919,5.000378781950543,-0.012686276645394332,0.0002965759688001758,0
221,0.008839999999999959,4.99972120164681,-0.014330225759327644,-0.0013976598654766512,0
222,0.008879999999999999,5.000707572102282,-0.012357486822223915,0.000524784054430693,0
223,0.008920000000000039,5.000378781950543,-0.012357486822223915,0.00047448095653600253,0
224,0.008960000000000079,5.000378781950543,-0.011042327528263687,0.0017393292883980185,0
225,0.008999999999999897,4.99972120164681,-0.00874079875891258,0.003990539448281526,0
226,0.009039999999999937,4.999063621342738,-0.007425639459330238,0.0052553727081995245,0
227,0.009079999999999977,4.99972120164681,-0.006439269983302923,0.006191408931876025,0
228,0.009120000000000017,5.000049991798719,-0.007096849634115457,0.005483489033873202,0
229,0.009160000000000057,5.000378781950543,-0.006110480157705198,0.006419511486436512,0
230,0.009200000000000097,5.000378781950543,-0.0028225818947114484,0.009657056167444373,0
231,0.009239999999999915,4.99972120164681,-0.007096849634115457,0.0053324285067673245,0
232,0.009279999999999955,5.000378781950543,-0.006110480157705198,0.006268431941802289,0
233,0.009319999999999995,5.000378781950543,-0.00808321910937683,0.004245321048170245,0
234,0.009360000000000035,5.000049991798719,-0.0047953208540382625,0.0074828416808117425,0
235,0.009400000000000075,5.000049991798719,-0.0047953208540382625,0.007432458597556885,0
236,0.009439999999999893,5.000378781950543,-0.00874079875891258,0.003436592369378242,0
237,0.009479999999999933,5.000378781950543,-0.006439269983302923,0.005687727802470963,0
238,0.009519999999999973,5.000378781950543,-0.0028225818947114484,0.009254017750497388,0
239,0.009560000000000013,5.000378781950543,-0.006768059808773,0.005258137119313871,0
240,0.009600000000000053,5.000049991798719,-0.007096849634115457,0.00487894022210948,0
241,0.009640000000000093,5.000049991798719,-0.0028225818947114484,0.009102796757053385,0
242,0.009679999999999911,5.000049991798719,-0.00019226327513760522,0.01168270026203463,0
243,0.009719999999999951,4.99972120164681,0.00013652655288240445,0.011961071288118148,0
244,0.009759999999999991,5.000707572102282,-0.003808951374948702,0.007965171094117231,0
245,0.009800000000000031,5.000378781950543,0.0004653163810297567,0.012189013343124189,0
246,0.009840000000000071,5.000378781950543,0.0014516858662357995,0.013124954304308791,0
247,0.009880000000000111,5.000049991798719,0.0030956350107915753,0.014718472131864065,0
248,0.009919999999999929,4.99972120164681,0.005725953648695714,0.01729835688417769,0
249,0.009959999999999969,5.000049991798719,0.003753214669504526,0.015275181675512232,0
250,0.010000000000000009,5.000378781950543,0.0021092655236763236,0.013580794181348511,0
251,0.010040000000000049,5.001036362253937,0.004739584158527918,0.016160672574341114,0
252,0.010080000000000089,5.000049991798719,0.00506837398845672,0.01643902049453952,0
253,0.010119999999999907,5.000049991798719,0.007041112970698912,0.01836131612514528,0
254,0.010159999999999947,4.99972120164681,0.004410794328726292,0.015680552915907916,0
255,0.010199999999999987,5.000707572102282,0.007041112970698912,0.018260426001576548,0
256,0.010240000000000027,5.000049991798719,0.0024380553525874815,0.013606922065021334,0
257,0.010280000000000067,5.000049991798719,0.0014516858662357995,0.012570105725294904,0
258,0.010320000000000107,4.99972120164681,-0.0008498429307955274,0.010218129767475045,0
259,0.010359999999999925,5.000049991798719,-0.001178632758433426,0.00983889269945937,0
260,0.010399999999999965,4.99972120164681,-0.0018362124133269458,0.009130865952729725,0
261,0.010440000000000005,4.99972120164681,-0.00348016154833046,0.0074364701028679855,0
262,0.010480000000000045,5.000049991798719,-0.007425639459330238,0.0034405460827284552,0
263,0.010520000000000085,4.99972120164681,-0.01301506646843685,-0.0021993262007555317,0
264,0.010559999999999903,4.99972120164681,-0.017618123977595282,-0.006852827920182762,0
265,0.010599999999999943,5.000049991798719,-0.02320755091924319,-0.01249269777834338,0
266,0.010639999999999983,5.000049991798719,-0.029125767640559533,-0.018461355892468605,0
267,0.010680000000000023,5.000378781950543,-0.03372882506167206,-0.023114852952439285,0
268,0.010720000000000063,5.000378781950543,-0.037016723204157484,-0.02645318874928705,0
269,0.010760000000000103,4.99972120164681,-0.04260615001678679,-0.03209305100094066,0
270,0.01079999999999992,4.99972120164681,-0.04194857039370768,-0.031485904370409455,0
271,0.01083999999999996,5.000049991798719,-0.04786678698281073,-0.03745455127415059,0
272,0.01088,5.000049991798719,-0.04951073602790314,-0.03914892772424383,0
273,0.01092000000000004,5.000378781950543,-0.05049710545340523,-0.04018572141308912,0
274,0.01096000000000008,5.000378781950543,-0.06463506709067811,-0.05437410393973528,0
275,0.010999999999999899,5.000378781950543,-0.06364869768191721,-0.053438151813774815,0
276,0.011039999999999939,5.000049991798719,-0.05838806081543309,-0.04822792839062575,0
277,0.011079999999999979,4.99972120164681,-0.06003200983978245,-0.049922286785663614,0
278,0.011120000000000019,5.001036362253937,-0.059703220035172325,-0.04964390204562677,0
279,0.011160000000000059,5.002680313010939,-0.06200474866471477,-0.05199583119987214,0
280,0.011200000000000099,4.999392411494816,-0.054113793336938706,-0.04415527162288817,0
281,0.011239999999999917,5.002022732708393,-0.06496385689333826,-0.055055725921844156,0
282,0.011279999999999957,5.000378781950543,-0.059374430230432304,-0.04951668475865117,0
283,0.011319999999999997,4.998077250885994,-0.0629911180754263,-0.053183752625624844,0
284,0.011360000000000037,5.000707572102282,-0.06167595886088427,-0.05191896772015833,0
285,0.011400000000000077,5.001036362253937,-0.06956691411691203,-0.059860291336906846,0
286,0.011439999999999895,5.002351522859708,-0.06759417530993413,-0.057937914706565424,0
287,0.011479999999999935,5.001693942556992,-0.07088207331895803,-0.06127616847213403,0
288,0.011519999999999975,5.001036362253937,-0.06792296511142272,-0.05836740936476742,0
289,0.011560000000000015,5.002022732708393,-0.07252602231858225,-0.06302080877915958,0
290,0.011600000000000055,5.001365152405508,-0.07581392030804664,-0.06635904184608586,0
291,0.011640000000000095,5.000707572102282,-0.07384118151593398,-0.06443663076455611,0
292,0.011679999999999913,4.99972120164681,-0.07745786929788322,-0.06810363865282873,0
293,0.011719999999999953,5.000707572102282,-0.07844423869021762,-0.06914032030957534,0
294,0.011759999999999993,4.999392411494816,-0.07943060808137585,-0.07017699388531304,0
295,0.011800000000000033,5.001036362253937,-0.08140334686016236,-0.07220002853065598,0
296,0.011840000000000073,5.000378781950543,-0.08732156316825516,-0.07816853214882423,0
297,0.011880000000000113,4.99972120164681,-0.08600640399234578,-0.076903651487785,0
298,0.01191999999999993,5.000378781950543,-0.09291098964246501,-0.08385850661857942,0
299,0.01195999999999997,4.99972120164681,-0.09521251817964406,-0.08621029536298505,0
300,0.01200000000000001,4.99972120164681,-0.09619888755075014,-0.08724691542835261,0
301,0.01204000000000005,5.000049991798719,-0.0998155752346823,-0.09091384405380301,0
302,0.01208000000000009,5.000707572102282,-0.10540500162397977,-0.096553501391837,0
303,0.012119999999999909,5.000378781950543,-0.1103368484064295,-0.10153556888994386,0
304,0.012159999999999949,5.000378781950543,-0.11230958711109378,-0.10355851783663027,0
305,0.012199999999999989,5.000049991798719,-0.1103368484064295,-0.10163597865954066,0
306,0.012240000000000029,5.000049991798719,-0.11198079732731327,-0.10333011615248353,0
307,0.012280000000000069,5.000707572102282,-0.1136247462448944,-0.10502424244528569,0
308,0.012320000000000109,5.000707572102282,-0.11691264407014172,-0.10836230620734019,0
309,0.012359999999999927,5.000049991798719,-0.11789901341513638,-0.1093988298089007,0
310,0.012399999999999967,5.000378781950543,-0.11691264407014172,-0.10846260279815231,0
311,0.012440000000000007,5.000378781950543,-0.12052933166263081,-0.11212942056024053,0
312,0.012480000000000047,5.000378781950543,-0.11559748494162976,-0.10724769160161568,0
313,0.012520000000000087,4.999392411494816,-0.11592627472395621,-0.10762658649627287,0
314,0.012559999999999905,5.000378781950543,-0.1106656381908704,-0.10241604218240385,0
315,0.012599999999999945,5.000707572102282,-0.1100080586218566,-0.10180854169618034,0
316,0.012639999999999985,4.99972120164681,-0.10606258119668784,-0.09791312997381994,0
317,0.012680000000000025,5.000378781950543,-0.09685646713083039,-0.08875706798699168,0
318,0.012720000000000065,4.99972120164681,-0.09554130797014417,-0.0874919470375176,0
319,0.012760000000000105,5.000049991798719,-0.08830793254881113,-0.08030859571530245,0
320,0.012799999999999923,5.000049991798719,-0.08173213665616903,-0.07378280956516886,0
321,0.012839999999999963,4.99972120164681,-0.07285481211811588,-0.0649554801682629,0
322,0.012880000000000003,5.000049991798719,-0.06627901610267752,-0.058429664447623,0
323,0.012920000000000043,5.000378781950543,-0.057401691399265334,-0.04960230494743875,0
324,0.012960000000000083,5.000049991798719,-0.04720920736386795,-0.0394597707782437,0
325,0.0129999999999999,4.99972120164681,-0.04063341114600001,-0.03293390884386527,0
326,0.01303999999999994,5.000378781950543,-0.03142729635426868,-0.02377771250699245,0
327,0.01307999999999998,5.000049991798719,-0.024193920375685754,-0.016594238908489118,0
328,0.01312000000000002,4.99972120164681,-0.017946913798717698,-0.010397118390445163,0
329,0.01316000000000006,5.000049991798719,-0.00939837840793746,-0.0018984524908295247,0
330,0.0132000000000001,5.000378781950543,-0.0008498429307955274,0.006600230309737564,0
331,0.013239999999999919,5.000049991798719,0.004410794328726292,0.011811031954329532,0
332,0.013279999999999959,5.000378781950543,0.009671431620803153,0.017021850940400554,0
333,0.013319999999999999,4.99972120164681,0.017233597785083862,0.024534216355101016,0
334,0.013360000000000039,4.99972120164681,0.030385191273714543,0.037636026898299986,0
335,0.013400000000000079,5.000049991798719,0.028741242076586612,0.03594231280783204,0
336,0.013439999999999896,4.99972120164681,0.04353678496405114,0.05068810910221018,0
337,0.013479999999999936,5.000378781950543,0.044851944344144246,0.05195354043785004,0
338,0.013519999999999976,5.000707572102282,0.045509524034943585,0.05256141088142495,0
339,0.013560000000000016,5.000049991798719,0.05175653112254362,0.05875872776784005,0
340,0.013600000000000056,4.999063621342738,0.04945500219027131,0.05640752792944677,0
341,0.013640000000000096,4.99972120164681,0.05044137173192248,0.05734424610927798,0
342,0.013679999999999914,5.000049991798719,0.052414110818605225,0.05926735362789014,0
343,0.013719999999999954,5.000378781950543,0.05438684990979273,0.06119048119441467,0
344,0.013759999999999994,4.99972120164681,0.05471563975876172,0.06146967981199515,0
345,0.013800000000000034,5.000049991798719,0.05603079915588792,0.06273526852108141,0
346,0.013840000000000074,5.000049991798719,0.059647487508292976,0.06630240697907526,0
347,0.013879999999999892,4.99972120164681,0.056688378855200935,0.06329376947568587,0
348,0.013919999999999932,5.000049991798719,0.05701716870504489,0.06357305177003492,0
349,0.013959999999999972,4.999392411494816,0.05438684990979273,0.06089324696498137,0
350,0.014000000000000012,5.000049991798719,0.052414110818605225,0.05887104366077811,0
351,0.014040000000000052,5.000049991798719,0.04978379203736312,0.05619128271459768,0
352,0.014080000000000092,5.000378781950543,0.04945500219027131,0.055813073002135186,0
353,0.01411999999999991,4.99972120164681,0.05340048036363608,0.059709153861384076,0
354,0.01415999999999995,4.99972120164681,0.04945500219027131,0.05571430117704122,0
355,0.01419999999999999,5.000707572102282,0.04419436465384674,0.05040431218485377,0
356,0.01424000000000003,4.99972120164681,0.033015509995673945,0.0391761293784038,0
357,0.01428000000000007,5.000378781950543,0.021507865646709548,0.02761918044111024,0
358,0.01432000000000011,5.000707572102282,0.029398821755059465,0.03546085577373188,0
359,0.014359999999999928,5.000707572102282,0.0392625169926218,0.045275294301008996,0
360,0.014399999999999968,5.001036362253937,0.04255041543029908,0.048513960346874184,0
361,0.014440000000000008,5.000378781950543,0.04287920527475757,0.04879354237121028,0
362,0.014480000000000048,5.000378781950543,0.04024888652260587,0.046114040624027644,0
363,0.014520000000000088,5.000378781950543,0.028412452237539368,0.03422844842260717,0
364,0.014559999999999906,5.000049991798719,0.02085028597429857,0.0266171495754575,0
365,0.014599999999999946,5.000049991798719,0.019863916466630674,0.025581673070275073,0
366,0.014639999999999986,5.000378781950543,0.02216544531962629,0.027834120766279464,0
367,0.014680000000000026,5.000378781950543,0.024795764016348754,0.030415384400841343,0
368,0.014720000000000066,4.99972120164681,0.027754872559823354,0.03332546423147032,0
369,0.014760000000000106,5.000049991798719,0.024138184341410046,0.02965977390418633,0
370,0.014799999999999924,5.000049991798719,0.02117907581044083,0.026651690123155616,0
371,0.014839999999999964,5.000049991798719,0.021507865646709548,0.026931531823179138,0
372,0.014880000000000004,5.000378781950543,0.015918438447348998,0.021293183856568306,0
373,0.014920000000000044,5.000378781950543,0.014932068945377922,0.020257921211690653,0
374,0.014960000000000084,5.000378781950543,0.012630540111881347,0.017907527115148755,0
375,0.014999999999999902,5.000049991798719,0.01295932994485767,0.018187479820625956,0
376,0.015039999999999942,5.000049991798719,0.016247228281592724,0.021426569421259038,0
377,0.015079999999999982,5.000049991798719,0.015260858779241576,0.0203914198302186,0
378,0.015120000000000022,5.000378781950543,0.009671431620803153,0.014753241486682217,0
379,0.015160000000000062,5.000049991798719,0.008356272294735026,0.013389360135447802,0
380,0.015200000000000102,5.000378781950543,0.008027482463535476,0.013011877695514252,0
381,0.01523999999999992,5.000378781950543,0.005397163818512657,0.010332896114849168,0
382,0.01527999999999996,5.000378781950543,0.004082004499051814,0.008969103789654626,0
383,0.01532,5.000378781950543,-0.0005210531030302584,0.004317443368720222,0
384,0.01536000000000004,5.000049991798719,-0.00019226327513760522,0.004597660821769219,0
385,0.01540000000000008,5.000049991798719,-0.0018362124133269458,0.0029051700100252787,0
386,0.015439999999999898,5.000378781950543,-0.0024937920677107622,0.0021990796408079,0
387,0.015479999999999938,4.999392411494816,-0.0031513717215847087,0.0014930204884035516,0
388,0.015519999999999978,5.000049991798719,-0.004466531027802631,0.0001294131576891909,0
389,0.015560000000000018,4.99972120164681,-0.009727168232258263,-0.005179640339350902,0
390,0.015600000000000058,4.99972120164681,-0.012028696998925656,-0.007529553408667032,0
391,0.0156400000000001,4.99972120164681,-0.010713537704454032,-0.00626274616874041,0
392,0.015679999999999916,5.000049991798719,-0.017946913798717698,-0.013544441811134527,0
393,0.015719999999999956,5.000378781950543,-0.024522710194243194,-0.020168524989923775,0
394,0.015759999999999996,4.99972120164681,-0.00348016154833046,0.0008257698961839133,0
395,0.015800000000000036,4.99972120164681,-0.0005210531030302584,0.003736657863868232,0
396,0.015840000000000076,4.99972120164681,-0.0008498429307955274,0.003359681099543528,0
397,0.015879999999999894,5.000049991798719,-0.005124110680146385,-0.0009627397863076566,0
398,0.015919999999999934,5.000049991798719,-0.007754429284417372,-0.003641177467883334,0
399,0.015959999999999974,4.99972120164681,-0.013343856291351444,-0.009278689233657555,0
400,0.016000000000000014,4.999392411494816,-0.013672646114138112,-0.009655529237420092,0
401,0.016040000000000054,5.000049991798719,-0.014659015581730453,-0.010689914048594906,0
402,0.016080000000000094,5.000378781950543,-0.014987805404005308,-0.011066684117401884,0
403,0.016119999999999912,5.000049991798719,-0.01696054433496612,-0.013087367938061143,0
404,0.016159999999999952,5.000049991798719,-0.006439269983302923,-0.0026140028593545747,0
405,0.016199999999999992,5.000378781950543,-0.003808951374948702,-3.1557647183696265e-05,0
406,0.016240000000000032,5.001036362253937,-0.0113711173519455,-0.0076415608834373445,0
407,0.016280000000000072,5.000378781950543,-0.014330225759327644,-0.010648470152876413,0
408,0.016320000000000112,5.000049991798719,-0.014659015581730453,-0.01102502417974408,0
409,0.01635999999999993,4.99972120164681,-0.015316595226152155,-0.011730331110529261,0
410,0.01639999999999997,4.99972120164681,-0.011042327528263687,-0.007503753520277942,0
411,0.01644000000000001,5.000378781950543,-0.010055958056451306,-0.006565036716637352,0
412,0.01648000000000005,4.99972120164681,-0.008412008934208556,-0.004968702562249489,0
413,0.01652000000000009,5.000049991798719,-0.0116999071754995,-0.008304177810115896,0
414,0.016559999999999908,5.000049991798719,-0.018275703619711994,-0.014927513038552496,0
415,0.016599999999999948,4.999392411494816,-0.01597417487006185,-0.012673484589595285,0
416,0.016639999999999988,5.000707572102282,-0.014659015581730453,-0.0114057868571395,0
417,0.016680000000000028,5.000049991798719,-0.01564538504817102,-0.01243957887324744,0
418,0.016720000000000068,5.000049991798719,-0.01564538504817102,-0.012486962155212465,0
419,0.016760000000000108,5.000049991798719,-0.014001435936796827,-0.01089035679650522,0
420,0.016799999999999926,5.000378781950543,-0.015316595226152155,-0.012252820047533619,0
421,0.016839999999999966,5.000049991798719,-0.017618123977595282,-0.014601612707861655,0
422,0.016880000000000006,4.99972120164681,-0.018275703619711994,-0.015306415944183928,0
423,0.016920000000000046,5.000049991798719,-0.017618123977595282,-0.014696019319606915,0
424,0.016960000000000086,5.000378781950543,-0.018275703619711994,-0.015400741140517234,0
425,0.016999999999999904,5.000378781950543,-0.01926207308192608,-0.016434211680606447,0
426,0.017039999999999944,5.000049991798719,-0.018275703619711994,-0.015494901933086086,0
427,0.017079999999999984,5.000049991798719,-0.017618123977595282,-0.01488434038012983,0
428,0.017120000000000024,4.999392411494816,-0.017618123977595282,-0.014931316581317789,0
429,0.017160000000000064,5.000378781950543,-0.018275703619711994,-0.01563583027412499,0
430,0.017200000000000104,5.000049991798719,-0.01301506646843685,-0.010422084760433782,0
431,0.017239999999999922,4.99972120164681,-0.0166317545134594,-0.014085621767242141,0
432,0.017279999999999962,5.000049991798719,-0.017618123977595282,-0.015118797254593273,0
433,0.017320000000000002,5.000049991798719,-0.014001435936796827,-0.011548872035587807,0
434,0.017360000000000042,5.000049991798719,-0.01301506646843685,-0.010609221924669248,0
435,0.017400000000000082,5.000378781950543,-0.005781690331979852,-0.0034225214182968004,0
436,0.0174399999999999,5.000049991798719,-0.008412008934208556,-0.00609947166017352,0
437,0.01747999999999994,5.000378781950543,-0.006110480157705198,-0.003844530269729302,0
438,0.01751999999999998,5.000049991798719,-0.007096849634115457,-0.004877442615386402,0
439,0.01756000000000002,4.99972120164681,-0.0031513717215847087,-0.0009784627919973633,0
440,0.01760000000000006,4.99972120164681,0.00013652655288240445,0.0022629824367937836,0
441,0.0176400000000001,5.000049991798719,0.00506837398845672,0.007148422133584612,0
442,0.017679999999999918,5.000049991798719,0.0021092655236763236,0.004142951500404419,0
443,0.017719999999999958,5.000378781950543,0.007369902801517392,0.009357272443783378,0
444,0.017759999999999998,4.99972120164681,0.016247228281592724,0.018188327686949463,0
445,0.017800000000000038,5.000049991798719,0.01756238761983417,0.019457263149509206,0
446,0.017840000000000078,5.000049991798719,0.018548757124844717,0.020397455403798084,0
447,0.017879999999999896,5.000049991798719,0.020521496138282788,0.02232406405526316,0
448,0.017919999999999936,4.99972120164681,0.031042770953448276,0.03279925566104746,0
449,0.017959999999999976,4.999392411494816,0.031700350633686175,0.033410799548391906,0
450,0.018000000000000016,5.000049991798719,0.036303408409458296,0.037967869211705266,0
451,0.018040000000000056,5.000049991798719,0.037947357621069405,0.039565878255288726,0
452,0.018080000000000096,4.99972120164681,0.046495893572083224,0.04806852224675015,0
453,0.018119999999999914,5.000707572102282,0.04978379203736312,0.05131057722504315,0
454,0.018159999999999954,4.998734831190575,0.044851944344144246,0.046332934781537494,0
455,0.018199999999999994,5.000049991798719,0.054058060060948765,0.05549330474893255,0
456,0.018240000000000034,5.000049991798719,0.05866111795613836,0.06005066615980829,0
457,0.018280000000000074,4.99972120164681,0.060962646912913254,0.06230654816162251,0
458,0.018320000000000114,5.000049991798719,0.05931869765744993,0.06061700174484698,0
459,0.018359999999999932,4.99972120164681,0.06819602367398483,0.06944878065804935,0
460,0.018399999999999972,5.000049991798719,0.06786723381990087,0.06907449402297823,0
461,0.018440000000000012,5.000378781950543,0.06983997294627126,0.07100178695510521,0
462,0.018480000000000052,4.99972120164681,0.0737854512124434,0.07490186987820704,0
463,0.018520000000000092,5.000049991798719,0.07345666135624548,0.07452773579457041,0
464,0.01855999999999991,5.000049991798719,0.08266277737669843,0.08368855896770222,0
465,0.01859999999999995,5.000378781950543,0.07838850921225148,0.07936904960056344,0
466,0.01863999999999999,5.000049991798719,0.08463551653658133,0.0855708676313664,0
467,0.01868000000000003,5.000049991798719,0.08595067597897872,0.08684088995395968,0
468,0.01872000000000007,5.000049991798719,0.08529309625753255,0.08613822555101051,0
469,0.01876000000000011,4.99972120164681,0.09219768335738154,0.09299778067225468,0
470,0.018799999999999928,4.99972120164681,0.09581437185998914,0.09656949016376984,0
471,0.018839999999999968,4.99972120164681,0.09515679213113215,0.09586698465596218,0
472,0.018880000000000008,5.000378781950543,0.09975985024348359,0.10042517048614749,0
473,0.018920000000000048,5.000049991798719,0.10436290837996715,0.10498341010190379,0
474,0.018960000000000088,5.000378781950543,0.11060991588943969,0.11118565311675203,0
475,0.018999999999999906,5.000049991798719,0.11488418421091426,0.11541521123437733,0
476,0.019039999999999946,5.001036362253937,0.12080240192096793,0.12128877329603467,0
477,0.019079999999999986,4.99972120164681,0.12441909054105722,0.12486086108786278,0
478,0.019120000000000026,4.99972120164681,0.13296762733813555,0.13336485214149973,0
479,0.019160000000000066,5.000049991798719,0.13789947552773896,0.13825220993716744,0
480,0.019200000000000106,5.000049991798719,0.13658431600783633,0.1368926156375193,0
481,0.019239999999999924,4.999063621342738,0.13757068564758101,0.13783460637639014,0
482,0.019279999999999964,4.999392411494816,0.14316011362678138,0.14337971159826465,0
483,0.019320000000000004,5.000049991798719,0.14381769339134592,0.1439930250137208,0
484,0.019360000000000044,5.000049991798719,0.1421737439808442,0.1423048659269886,0
485,0.019400000000000084,4.999392411494816,0.14677680233788687,0.14686377154532845,0
486,0.019439999999999902,4.999392411494816,0.14381769339134592,0.1438605670622493,0
487,0.019479999999999942,4.998734831190575,0.14348890350900304,0.1434877391101549,0
488,0.019519999999999982,5.001036362253937,0.1300085184375156,0.12996337370030808,0
489,0.019560000000000022,5.000707572102282,0.13296762733813555,0.13287856025854747,0
490,0.019600000000000062,5.001036362253937,0.1181720829338278,0.11803915177240394,0
491,0.019640000000000102,5.001693942556992,0.12244635129190345,0.12226961457373195,0
492,0.01967999999999992,4.999392411494816,0.10962354627973452,0.10940306279442286,0
493,0.01971999999999996,5.000707572102282,0.10436290837996715,0.10409873718161577,0
494,0.01976,4.999063621342738,0.0971295313191825,0.09682173172635694,0
495,0.01980000000000004,5.001365152405508,0.08792341514628582,0.08757204674198651,0
496,0.01984000000000008,5.000378781950543,0.08036124836247038,0.07996637099410087,0
497,0.019879999999999898,5.000378781950543,0.07510061063847716,0.0746622844178102,0
498,0.019919999999999938,5.000378781950543,0.07082634251113593,0.07034462781427778,0
499,0.019959999999999978,4.998406041038327,0.06819602367398483,0.06767098114133756,0
500,0.020000000000000018,5.000049991798719,0.06589449469801162,0.06532618523423343,0
501,0.020040000000000058,5.000049991798719,0.05833232810566989,0.05772081287963357,0
502,0.020080000000000098,5.000049991798719,0.05800353825532628,0.05734887870007559,0
503,0.020119999999999916,4.99972120164681,0.05307169051516736,0.052373948327871636,0
504,0.020159999999999956,5.000378781950543,0.05537321945707481,0.054632456598981576,0
505,0.020199999999999996,5.000378781950543,0.054058060060948765,0.05327433875733434,0
506,0.020240000000000036,4.99972120164681,0.04945500219027131,0.048628384930389554,0
507,0.020280000000000076,4.99972120164681,0.04978379203736312,0.04891434157439217,0
508,0.020319999999999894,5.000378781950543,0.04978379203736312,0.048871571388350334,0
509,0.020359999999999934,5.000378781950543,0.050112581884580176,0.049157654330385006,0
510,0.020399999999999974,5.000378781950543,0.045838313880531376,0.04484074296576637,0
511,0.020440000000000014,5.000049991798719,0.045838313880531376,0.044798163413501076,0
512,0.020480000000000054,5.000378781950543,0.04748226311035131,0.046399597162989054,0
513,0.020520000000000094,4.99972120164681,0.04320799511934159,0.04208287802714435,0
514,0.02055999999999991,5.000049991798719,0.046495893572083224,0.04532838993404434,0
515,0.02059999999999995,5.000049991798719,0.045509524034943585,0.044299698713483514,0
516,0.02063999999999999,5.000707572102282,0.04781105295669137,0.04655897107758637,0
517,0.02068000000000003,5.000049991798719,0.04222162558596615,0.04092735253827499,0
518,0.02072000000000007,4.999392411494816,0.041564045897676996,0.040227647333665566,0
519,0.02076000000000011,5.000049991798719,0.04024888652260587,0.03887042835766978,0
520,0.02079999999999993,5.000049991798719,0.04024888652260587,0.03882843493519094,0
521,0.02083999999999997,5.000378781950543,0.033673089677423634,0.03221071110894444,0
522,0.02088000000000001,5.000049991798719,0.03202914047399413,0.030524901628750396,0
523,0.02092000000000005,5.000049991798719,0.028083662398618273,0.02653763024370917,0
524,0.02096000000000009,5.000378781950543,0.02117907581044083,0.019591317575677242,0
525,0.020999999999999908,4.99972120164681,0.012630540111881347,0.011001123289695998,0
526,0.021039999999999948,5.000049991798719,0.009671431620803153,0.008000423966158701,0
527,0.021079999999999988,4.99972120164681,0.003424424840084442,0.0017118943703795242,0
528,0.021120000000000028,5.000049991798719,-0.002165002240582567,-0.003918987245609365,0
529,0.021160000000000068,5.000378781950543,-0.007425639459330238,-0.009221010457698464,0
530,0.021200000000000108,5.000049991798719,-0.00874079875891258,-0.010577486946500042,0
531,0.021239999999999926,5.000049991798719,-0.012686276645394332,-0.014564212956039282,0
532,0.021279999999999966,5.000378781950543,-0.01597417487006185,-0.017893289975667186,0
533,0.021320000000000006,5.000378781950543,-0.019590862902407788,-0.021551087213047354,0
534,0.021360000000000046,5.000378781950543,-0.0228787611001723,-0.024880024764199482,0
535,0.021400000000000086,5.000378781950543,-0.025837869467188898,-0.027880102371347137,0
536,0.021439999999999904,5.000378781950543,-0.01926207308192608,-0.021345204851461533,0
537,0.021479999999999944,5.000378781950543,-0.026495449102891075,-0.028619409101667326,0
538,0.021519999999999984,5.000707572102282,-0.0340576148765004,-0.036222332207115376,0
539,0.021560000000000024,5.000049991798719,-0.025837869467188898,-0.028043272971093686,0
540,0.021600000000000064,5.000049991798719,-0.022549971280973066,-0.024795989538592897,0
541,0.021640000000000104,5.000378781950543,-0.031756086169998185,-0.03404264750085588,0
542,0.02167999999999992,4.99972120164681,-0.03964704170886384,-0.041974074171705275,0
543,0.02171999999999996,5.000049991798719,-0.03438640469119987,-0.036753836084121486,0
544,0.02176,4.99972120164681,-0.04293493982813261,-0.04534269768871088,0
545,0.02180000000000004,5.000049991798719,-0.0389894620834612,-0.04143747368888434,0
546,0.02184000000000008,4.99972120164681,-0.042277360205311795,-0.04476555257251362,0
547,0.0218799999999999,4.999392411494816,-0.04392130926139491,-0.04644960914719093,0
548,0.02191999999999994,5.000378781950543,-0.04194857039370768,-0.044516904294933504,0
549,0.02195999999999998,5.000049991798719,-0.04622283793448369,-0.04883113208813526,0
550,0.02200000000000002,5.000049991798719,-0.04030462133375036,-0.042952801717126426,0
551,0.02204000000000006,5.001036362253937,-0.04622283793448369,-0.04891083026533004,0
552,0.0220800000000001,4.99972120164681,-0.04819557679208804,-0.05092330652874384,0
553,0.022119999999999918,5.000049991798719,-0.05378500352999273,-0.05655239587153911,0
554,0.022159999999999958,5.000378781950543,-0.05510016275699865,-0.05790714264340949,0
555,0.022199999999999998,5.000049991798719,-0.053456213722917104,-0.056302705835211755,0
556,0.022240000000000038,5.000049991798719,-0.058716850620562686,-0.061602779380960856,0
557,0.022280000000000078,5.000378781950543,-0.06430627728788789,-0.06723156685996665,0
558,0.022319999999999895,5.000378781950543,-0.0629911180754263,-0.06595569236427924,0
559,0.022359999999999935,5.000049991798719,-0.06529264669586828,-0.06829642934826671,0
560,0.022399999999999975,4.99972120164681,-0.06956691411691203,-0.07260982852146855,0
561,0.022440000000000015,4.99972120164681,-0.07647149990437309,-0.07955346919170708,0
562,0.022480000000000055,4.99972120164681,-0.08140334686016236,-0.08452429390306776,0
563,0.022520000000000095,4.99972120164681,-0.08107455706402487,-0.08423440447764,0
564,0.022559999999999913,4.99972120164681,-0.07745786929788322,-0.08065653943986269,0
565,0.022599999999999953,4.99972120164681,-0.07581392030804664,-0.07905133527873556,0
566,0.022639999999999993,4.99972120164681,-0.08863672234206758,-0.09191280398467769,0
567,0.022680000000000033,5.000378781950543,-0.10047315481186896,-0.10378782471265685,0
568,0.022720000000000073,5.000378781950543,-0.11296716667825839,-0.11632034616670547,0
569,0.022760000000000113,5.000378781950543,-0.11296716667825839,-0.1163587768272531,0
570,0.02279999999999993,5.000049991798719,-0.1103368484064295,-0.11376681003245182,0
571,0.02283999999999997,5.000378781950543,-0.1103368484064295,-0.11380508206973783,0
572,0.02288000000000001,5.000378781950543,-0.1106656381908704,-0.11417206419569045,0
573,0.02292000000000005,5.000049991798719,-0.11461111559385707,-0.11815565398857297,0
574,0.02296000000000009,5.000378781950543,-0.11329595646164246,-0.1168785270389899,0
575,0.02299999999999991,5.000378781950543,-0.11987175210155175,-0.12349227439881333,0
576,0.02303999999999995,5.000707572102282,-0.12710512724426004,-0.13076352054346285,0
577,0.02307999999999999,5.000049991798719,-0.1290778659083996,-0.13277404923651487,0
578,0.02312000000000003,5.000378781950543,-0.12842028635421754,-0.13215417848336244,0
579,0.02316000000000007,5.000049991798719,-0.12644754768848476,-0.1302190671361262,0
580,0.02320000000000011,5.000049991798719,-0.12743391702194856,-0.13124298205110904,0
581,0.023239999999999927,4.99972120164681,-0.12710512724426004,-0.13095165586372554,0
582,0.023279999999999967,4.99972120164681,-0.12480359879672413,-0.1286875087612542,0
583,0.023320000000000007,5.000049991798719,-0.11789901341513638,-0.12182022222567636,0
584,0.023360000000000047,5.000049991798719,-0.12118691122318002,-0.12514533612707524,0
585,0.023400000000000087,4.99972120164681,-0.11625506450615032,-0.12025062249736301,0
586,0.023439999999999905,4.99972120164681,-0.11230958711109378,-0.11634219493042228,0
587,0.023479999999999945,4.99972120164681,-0.10540500162397977,-0.10947457575927953,0
588,0.023519999999999985,5.000378781950543,-0.09422614880735543,-0.09833260549376235,0
589,0.023560000000000025,5.000378781950543,-0.0863351937865197,-0.09047844900667579,0
590,0.023600000000000065,5.000378781950543,-0.07877302848740105,-0.08295299797168239,0
591,0.023640000000000105,4.99972120164681,-0.07449876111382696,-0.07871536034057416,0
592,0.023679999999999923,5.000049991798719,-0.06726538550831525,-0.07151852970406596,0
593,0.023719999999999963,5.000049991798719,-0.05707290159361651,-0.061362505733340046,0
594,0.023760000000000003,5.000378781950543,-0.05115468506975916,-0.0554806638770934,0
595,0.023800000000000043,4.99972120164681,-0.04260615001678679,-0.04696841796427703,0
596,0.023840000000000083,5.000049991798719,-0.03800309264438971,-0.04240156395372974,0
597,0.0238799999999999,5.000049991798719,-0.028139398189897927,-0.0325739868321732,0
598,0.02391999999999994,5.000049991798719,-0.01991965272276132,-0.024390272418694337,0
599,0.02395999999999998,4.99972120164681,-0.012028696998925656,-0.01653526121912361,0
600,0.02400000000000002,4.99972120164681,-0.006768059808773,-0.011310481773977596,0
601,0.02404000000000006,5.000378781950543,0.012301750279031881,0.007723557597692322,0
602,0.0240800000000001,5.000049991798719,0.001122896037706475,-0.003490980081537259,0
603,0.02411999999999992,5.000378781950543,-0.008412008934208556,-0.01306148096402318,0
604,0.02415999999999996,5.000378781950543,-0.006439269983302923,-0.011124250147511401,0
605,0.0242,4.99972120164681,0.001780475694892425,-0.002939924578950065,0
606,0.02424000000000004,5.000707572102282,0.007369902801517392,0.0026141706911203526,0
607,0.02428000000000008,5.000378781950543,0.01821996728971463,0.013428991863896688,0
608,0.024319999999999897,5.000378781950543,0.018877546960101396,0.014051416987782728,0
609,0.024359999999999937,5.000049991798719,0.02117907581044083,0.016317880308058218,0
610,0.024399999999999977,4.99972120164681,0.022823024993048696,0.017926853224283435,0
611,0.024440000000000017,5.000378781950543,0.027426082721154613,0.022495024196658192,0
612,0.024480000000000057,5.000378781950543,0.026110923367741706,0.021145067844859262,0
613,0.024520000000000097,5.000378781950543,0.014603279111640999,0.009602716594132508,0
614,0.024559999999999915,5.000378781950543,0.011972960446309217,0.006937781184068376,0
615,0.024599999999999955,5.000049991798719,0.02019270630239349,0.015123000791164493,0
616,0.024639999999999995,5.000049991798719,0.02085028597429857,0.015746144955390597,0
617,0.024680000000000035,4.99972120164681,0.018877546960101396,0.013739061420100816,0
618,0.024720000000000075,5.000707572102282,0.013945699444547363,0.00877296061502774,0
619,0.024759999999999893,4.99972120164681,0.013616909611190692,0.008410008968420563,0
620,0.024799999999999933,5.000378781950543,0.011972960446309217,0.006731989710957613,0
621,0.024839999999999973,5.000049991798719,0.013945699444547363,0.00867075058138709,0
622,0.024880000000000013,5.000049991798719,0.014932068945377922,0.009623234162986567,0
623,0.024920000000000053,5.000049991798719,0.017233597785083862,0.011890969535542528,0
624,0.024960000000000093,5.000049991798719,0.019863916466630674,0.014487587445220471,0
625,0.02499999999999991,5.000378781950543,0.024466974178816228,0.0190570373237125,0
626,0.02503999999999995,5.000049991798719,0.0353170388840013,0.029873587375965564,0
627,0.02507999999999999,5.000049991798719,0.03202914047399413,0.026552267736063777,0
628,0.02512000000000003,5.000049991798719,0.03893372714954513,0.03342352684672076,0
629,0.02516000000000007,5.000049991798719,0.05044137173192248,0.044897937770853,0
630,0.02520000000000011,4.99972120164681,0.051098951426982675,0.045522377955647945,0
631,0.02523999999999993,5.000049991798719,0.059647487508292976,0.05403786891568421,0
632,0.02527999999999997,5.000049991798719,0.06359296572814185,0.057950396643939764,0
633,0.02532000000000001,4.99972120164681,0.0714839222216675,0.06580849751591816,0
634,0.02536000000000005,5.001036362253937,0.07937487878680298,0.07366669356959155,0
635,0.02540000000000009,4.99972120164681,0.07773092949650393,0.07199007911762598,0
636,0.025439999999999907,5.000378781950543,0.08595067597897872,0.08017725602760933,0
637,0.025479999999999947,5.000049991798719,0.08233398751715135,0.07652809382151217,0
638,0.025519999999999987,5.000378781950543,0.08069003822127407,0.07485176684829803,0
639,0.025560000000000027,5.000049991798719,0.08463551653658133,0.07876496379157505,0
640,0.025600000000000067,4.999392411494816,0.08430672667629135,0.07840398910259529,0
641,0.025640000000000107,5.000378781950543,0.08463551653658133,0.07870069091522738,0
642,0.025679999999999925,5.000378781950543,0.07970366864523482,0.07373685199460168,0
643,0.025719999999999965,5.000049991798719,0.0737854512124434,0.0677867407879095,0
644,0.025760000000000005,5.000378781950543,0.07345666135624548,0.06742615464983966,0
645,0.025800000000000045,4.99972120164681,0.06918239323698341,0.06312018797703334,0
646,0.025840000000000085,5.000049991798719,0.06162022661597208,0.0555264207667503,0
647,0.025879999999999903,5.000049991798719,0.05931869765744993,0.05319338941881742,0
648,0.025919999999999943,5.000049991798719,0.05372927021222988,0.04757255801927717,0
649,0.025959999999999983,4.99972120164681,0.050112581884580176,0.0439245644072663,0
650,0.026000000000000023,4.99972120164681,0.04715347326413659,0.04093424940692572,0
651,0.026040000000000063,5.000049991798719,0.04024888652260587,0.033998555424101726,0
652,0.026080000000000103,5.000049991798719,0.034988249042434,0.028706910075011905,0
653,0.02611999999999992,5.000049991798719,0.030385191273714543,0.024072944043151127,0
654,0.02615999999999996,5.000378781950543,0.028083662398618273,0.0217406067437187,0
655,0.0262,5.000049991798719,0.027097292882612076,0.020723528874834925,0
656,0.02624000000000004,5.000049991798719,0.02216544531962629,0.015761073262706093,0
657,0.02628000000000008,5.000378781950543,0.018877546960101396,0.01244266738966877,0
658,0.0263199999999999,4.999392411494816,0.015918438447348998,0.00945315213054846,0
659,0.02635999999999994,5.000049991798719,0.014932068945377922,0.008436476880483325,0
660,0.02639999999999998,5.000378781950543,0.008356272294735026,0.0018304757107626152,0
661,0.02644000000000002,5.000049991798719,0.007369902801517392,0.0008140031578364702,0
662,0.02648000000000006,5.000049991798719,0.0076986926324629085,0.0011127916184041327,0
663,0.0265200000000001,5.000707572102282,0.004739584158527918,-0.0018762163070107883,0
664,0.026559999999999917,5.000049991798719,0.001122896037706475,-0.005522701731243446,0
665,0.026599999999999957,5.000378781950543,0.0014516858662357995,-0.005223606829284692,0
666,0.026639999999999997,5.000049991798719,-0.0018362124133269458,-0.008541097430206679,0
667,0.026680000000000037,5.000378781950543,-0.0005210531030302584,-0.007255427608090878,0
668,0.026720000000000077,4.99972120164681,-0.0028225818947114484,-0.009586342827213604,0
669,0.026759999999999895,5.000049991798719,-0.003808951374948702,-0.010601995447000481,0
670,0.026799999999999935,4.99972120164681,-0.0031513717215847087,-0.009973595418552472,0
671,0.026839999999999975,4.99972120164681,-0.00348016154833046,-0.010331461129252054,0
672,0.026880000000000015,5.000049991798719,-0.006768059808773,-0.013648331306773332,0
673,0.026920000000000055,5.000049991798719,-0.00808321910937683,-0.01499235833208587,0
674,0.026960000000000095,5.000378781950543,-0.005452900506126915,-0.01239080303610007,0
675,0.026999999999999913,4.99972120164681,-0.005781690331979852,-0.012748251527120738,0
676,0.027039999999999953,5.000049991798719,-0.007096849634115457,-0.014091964628101066,0
677,0.027079999999999993,4.999392411494816,-0.006110480157705198,-0.013134043860413488,0
678,0.027120000000000033,5.000378781950543,-0.006768059808773,-0.013819966906712878,0
679,0.027160000000000073,5.000049991798719,-0.007754429284417372,-0.01483457424116109,0
680,0.027200000000000113,4.99972120164681,-0.004466531027802631,-0.011574808084420594,0
681,0.02723999999999993,5.000049991798719,-0.0028225818947114484,-0.00995888507020945,0
682,0.02727999999999997,4.999392411494816,-0.004466531027802631,-0.011630754119561533,0
683,0.02732000000000001,4.999392411494816,-0.005452900506126915,-0.012644937090344761,0
684,0.02736000000000005,4.99972120164681,-0.005781690331979852,-0.013001433764116409,0
685,0.02740000000000009,4.99972120164681,0.00013652655288240445,-0.00711081686234134,0
686,0.02743999999999991,4.99972120164681,-0.003808951374948702,-0.011083787688586184,0
687,0.02747999999999995,4.99972120164681,-0.0018362124133269458,-0.009138434321314592,0
688,0.02751999999999999,5.000049991798719,0.0024380553525874815,-0.004891444626750832,0
689,0.02756000000000003,4.99972120164681,0.0030956350107915753,-0.00426103529841864,0
690,0.02760000000000007,4.999392411494816,0.0004653163810297567,-0.006918416298553401,0
691,0.02764000000000011,4.99972120164681,0.004739584158527918,-0.002671102714370527,0
692,0.027679999999999927,4.99972120164681,0.004082004499051814,-0.0033555281730094704,0
693,0.027719999999999967,5.000707572102282,0.007041112970698912,-0.000423156889744336,0
694,0.027760000000000007,5.000378781950543,0.004410794328726292,-0.0030801038931584004,0
695,0.027800000000000047,4.999392411494816,0.00506837398845672,-0.002449043552240496,0
696,0.027840000000000087,5.001693942556992,0.009013851957515154,0.0014700243558490571,0
697,0.027879999999999905,5.002351522859708,0.004739584158527918,-0.0028305440315248053,0
698,0.027919999999999945,4.998734831190575,0.010000221452637598,0.0024039023610405337,0
699,0.027959999999999985,5.000378781950543,0.005725953648695714,-0.0018964464438243666,0
700,0.028000000000000025,5.000378781950543,0.015918438447348998,0.008270067467822785,0
701,0.028040000000000065,4.998406041038327,0.014932068945377922,0.007257837405572147,0
702,0.028080000000000105,4.99972120164681,0.008685062126061585,0.000985080565024117,0
703,0.028119999999999923,5.000378781950543,0.01065780111668721,0.0029321802852964136,0
704,0.028159999999999963,5.000049991798719,0.011315380781244458,0.0035642316417159522,0
705,0.028200000000000003,4.99972120164681,0.011972960446309217,0.00419639417170016,0
706,0.028240000000000043,5.000378781950543,0.011972960446309217,0.004171088420020145,0
707,0.028280000000000083,5.000049991798719,0.011972960446309217,0.00414589426158342,0
708,0.0283199999999999,5.000049991798719,0.013616909611190692,0.00576476107061114,0
709,0.02835999999999994,5.000049991798719,0.011972960446309217,0.004095841561293033,0
710,0.02839999999999998,5.000049991798719,0.013945699444547363,0.006043722434837816,0
711,0.02844000000000002,4.99972120164681,0.011972960446309217,0.004046237739465285,0
712,0.02848000000000006,5.000049991798719,0.01328811977796078,0.0053367640088442195,0
713,0.0285200000000001,5.000378781950543,0.014603279111640999,0.00662740312190097,0
714,0.02855999999999992,5.000049991798719,0.016904807950460177,0.008904524788015393,0
715,0.02859999999999996,4.999392411494816,0.016576018115963126,0.00855144103448153,0
716,0.02864,4.99972120164681,0.018548757124844717,0.010499999583220673,0
717,0.02868000000000004,5.000378781950543,0.016247228281592724,0.008174403943421745,0
718,0.02872000000000008,5.000049991798719,0.014603279111640999,0.006506501844692012,0
719,0.028759999999999897,5.000707572102282,0.013945699444547363,0.005825083320232453,0
720,0.028799999999999937,5.000049991798719,0.016247228281592724,0.008102887574434451,0
721,0.028839999999999977,5.000049991798719,0.015589648613231935,0.007421697800328183,0
722,0.028880000000000017,5.000049991798719,0.011972960446309217,0.0037815142067955556,0
723,0.028920000000000057,5.000049991798719,0.01295932994485767,0.004744503159367228,0
724,0.028960000000000097,5.000378781950543,0.006383533309443135,-0.0018545589404359887,0
725,0.028999999999999915,5.000049991798719,0.007041112970698912,-0.0012201294615709285,0
726,0.029039999999999955,5.000049991798719,0.003753214669504526,-0.004531062463295747,0
727,0.029079999999999995,5.000049991798719,-0.00019226327513760522,-0.00849945942729576,0
728,0.029120000000000035,5.000049991798719,-0.0024937920677107622,-0.010823791359294524,0
729,0.029160000000000075,5.000049991798719,-0.005124110680146385,-0.013476797033018774,0
730,0.029200000000000115,5.000049991798719,-0.007425639459330238,-0.015800896597707087,0
731,0.029239999999999933,4.99972120164681,-0.013672646114138112,-0.022070357565148063,0
732,0.029279999999999973,4.99972120164681,-0.014987805404005308,-0.023407854498252348,0
733,0.029320000000000013,5.000049991798719,-0.021234812002893247,-0.029677081875021678,0
734,0.029360000000000053,5.000378781950543,-0.025509079649145103,-0.033973453238406975,0
735,0.029400000000000093,5.000049991798719,-0.03208487598559902,-0.04057123603642405,0
736,0.02943999999999991,5.000049991798719,-0.0340576148765004,-0.042565843939068315,0
737,0.02947999999999995,5.000049991798719,-0.03931825189622702,-0.04784823232704234,0
738,0.02951999999999999,4.99972120164681,-0.04425009907222392,-0.052801713034693276,0
739,0.02956000000000003,5.000707572102282,-0.0498395258365333,-0.058412655301545255,0
740,0.02960000000000007,5.000378781950543,-0.054113793336938706,-0.0627083200834462,0
741,0.02964000000000011,5.000049991798719,-0.05674411178783788,-0.06535991740344295,0
742,0.02967999999999993,5.000049991798719,-0.057401691399265334,-0.06603865728080648,0
743,0.02971999999999997,4.99972120164681,-0.059045640425562415,-0.06770364777970449,0
744,0.02976000000000001,5.000378781950543,-0.0629911180754263,-0.07167004791925312,0
745,0.02980000000000005,5.000049991798719,-0.07318360191751903,-0.08188333507912827,0
746,0.02984000000000009,4.99972120164681,-0.06989570391761903,-0.07861612103671971,0
747,0.029879999999999907,5.000049991798719,-0.07285481211811588,-0.08159579364662829,0
748,0.029919999999999947,5.000707572102282,-0.08271850604340404,-0.09147993224606212,0
749,0.029959999999999987,4.99972120164681,-0.08469124481434036,-0.09347299576929662,0
750,0.030000000000000027,5.000378781950543,-0.08107455706402487,-0.08987651266345804,0
751,0.030040000000000067,5.000707572102282,-0.08469124481434036,-0.09351328476506528,0
752,0.030080000000000107,4.99972120164681,-0.09126704068339796,-0.10010904450747794,0
753,0.030119999999999925,4.99972120164681,-0.0843624550195116,-0.0932243020548731,0
754,0.030159999999999965,5.000378781950543,-0.09554130797014417,-0.10442287737119361,0
755,0.030200000000000005,5.000049991798719,-0.09455493859824966,-0.10345610933649287,0
756,0.030240000000000045,4.99972120164681,-0.10145952417666172,-0.11038017504132544,0
757,0.030280000000000085,5.000049991798719,-0.10408984247698179,-0.11302985207563783,0
758,0.030319999999999903,5.000049991798719,-0.10540500162397977,-0.11436424838317127,0
759,0.030359999999999943,4.99972120164681,-0.10639137098284411,-0.11536973314871439,0
760,0.030399999999999983,5.000049991798719,-0.10770653012615032,-0.11670388576507397,0
761,0.030440000000000023,5.000049991798719,-0.11395353602801415,-0.12296976302723062,0
762,0.030480000000000063,5.000049991798719,-0.11428232581100171,-0.12331730187925188,0
763,0.030520000000000103,5.000707572102282,-0.11954296232081356,-0.12859656498897898,0
764,0.03055999999999992,5.000049991798719,-0.11888538275893985,-0.1279574893806844,0
765,0.03059999999999996,5.000049991798719,-0.12250207034268835,-0.13159255809510212,0
766,0.03064,5.000049991798719,-0.12447480901797399,-0.13358355490221968,0
767,0.03068000000000004,5.000049991798719,-0.12381722946007585,-0.13294411030203723,0
768,0.03072000000000008,5.000378781950543,-0.1267763374664388,-0.13592122991737166,0
769,0.0307599999999999,5.000378781950543,-0.1267763374664388,-0.13593911800362404,0
770,0.03079999999999994,5.000378781950543,-0.12447480901797399,-0.13365535394537323,0
771,0.03083999999999998,5.000049991798719,-0.12644754768848476,-0.13564573313739844,0
772,0.03088000000000002,5.000049991798719,-0.12710512724426004,-0.13632082917398824,0
773,0.03092000000000006,5.000378781950543,-0.13598245119521052,-0.14521554539371634,0
774,0.0309600000000001,4.99972120164681,-0.12644754768848476,-0.13569790977306007,0
775,0.030999999999999917,5.000049991798719,-0.12020054188215752,-0.12946804730009082,0
776,0.031039999999999957,5.000378781950543,-0.1103368484064295,-0.11962137243567614,0
777,0.031079999999999997,5.000378781950543,-0.10376105268990284,-0.11306247043975765,0
778,0.031120000000000037,5.000049991798719,-0.10376105268990284,-0.11307923910167499,0
779,0.031160000000000077,5.000049991798719,-0.10310347311534969,-0.11243830296303997,0
780,0.031199999999999894,5.000049991798719,-0.10376105268990284,-0.1131124005808832,0
781,0.031239999999999934,5.000049991798719,-0.1024458935402696,-0.1118136339159653,0
782,0.031279999999999974,5.000049991798719,-0.09422614880735543,-0.10361015594392929,0
783,0.031320000000000014,5.000049991798719,-0.08600640399234578,-0.09540655200138501,0
784,0.031360000000000054,5.000049991798719,-0.07811544889290346,-0.08753161172210902,0
785,0.031400000000000095,5.000049991798719,-0.06858054471400928,-0.07801259614788747,0
786,0.03143999999999991,4.99972120164681,-0.06529264669586828,-0.07474046035642451,0
787,0.03147999999999995,5.000378781950543,-0.060689589448612954,-0.07015303879604785,0
788,0.03151999999999999,5.000378781950543,-0.05115468506975916,-0.06063364340316697,0
789,0.03156000000000003,5.000378781950543,-0.04786678698281073,-0.057361127440880136,0
790,0.03160000000000007,5.000049991798719,-0.03964704170886384,-0.049156637270581185,0
791,0.03164000000000011,5.000049991798719,-0.03241366580107112,-0.04193838928642596,0
792,0.03167999999999993,5.000049991798719,-0.022221181461645576,-0.031760905532338596,0
793,0.03171999999999997,5.000049991798719,-0.012686276645394332,-0.022240873805547623,0
794,0.03176000000000001,5.000707572102282,-0.00808321910937683,-0.01765256170624653,0
795,0.03180000000000005,5.000049991798719,-0.002165002240582567,-0.011748962465273925,0
796,0.03184000000000009,5.000049991798719,0.005725953648695714,-0.003872496239489119,0
797,0.03187999999999991,5.000378781950543,0.011315380781244458,0.0017025693486079144,0
798,0.03191999999999995,5.000378781950543,0.01756238761983417,0.007935342915779083,0
799,0.03195999999999999,5.000049991798719,0.0264397132059056,0.016798563656731907,0
800,0.03200000000000003,4.99972120164681,0.029070031915759978,0.019414906100307383,0
801,0.03204000000000007,5.000049991798719,0.037947357621069405,0.028278384269988063,0
802,0.03208000000000011,5.000049991798719,0.04090646620989019,0.03122377420490896,0
803,0.032119999999999926,5.000378781950543,0.045509524034943585,0.03581324240813581,0
804,0.032159999999999966,4.99972120164681,0.04912621234330475,0.039416470276351645,0
805,0.032200000000000006,5.000049991798719,0.04748226311035131,0.037759189933802895,0
806,0.032240000000000046,4.99972120164681,0.050112581884580176,0.04037630707711391,0
807,0.032280000000000086,5.000378781950543,0.045838313880531376,0.03608896706820841,0
808,0.032319999999999904,4.99972120164681,0.04945500219027131,0.039692713145790356,0
809,0.032359999999999944,5.000378781950543,0.03400187951848738,0.024226778160436335,0
810,0.032399999999999984,5.000378781950543,0.050770161579389975,0.04098237797149529,0
811,0.032440000000000024,5.000049991798719,0.05866111795613836,0.04886078230651213,0
812,0.032480000000000064,5.000049991798719,0.07016876280110178,0.06035600546148644,0
813,0.032520000000000104,4.99972120164681,0.06326417587580183,0.053439127340812534,0
814,0.03255999999999992,5.000049991798719,0.05701716870504489,0.047179959611409306,0
815,0.03259999999999996,5.000378781950543,0.05142774127470057,0.041578502400496306,0
816,0.03264,5.000049991798719,0.04781105295669137,0.03794991522058101,0
817,0.03268000000000004,5.000707572102282,0.045180734189481195,0.03530782864994508,0
818,0.03272000000000008,5.000378781950543,0.044851944344144246,0.03496740219871079,0
819,0.0327599999999999,4.999392411494816,0.037618567778495635,0.027722520362969308,0
820,0.03279999999999994,5.000049991798719,0.04024888652260587,0.03034146531029283,0
821,0.03283999999999998,5.000707572102282,0.041564045897676996,0.03164538249860836,0
822,0.03288000000000002,5.000049991798719,0.04123525605372079,0.03130548221387355,0
823,0.03292000000000006,5.000378781950543,0.03860493730659416,0.028664184907109612,0
824,0.0329600000000001,5.000049991798719,0.033673089677423634,0.023721490733823486,0
825,0.03299999999999992,4.99972120164681,0.03202914047399413,0.02206682713539422,0
826,0.03303999999999996,5.000049991798719,0.028412452237539368,0.018439556785861094,0
827,0.03308,5.000049991798719,0.025124553854007567,0.015141208703186915,0
828,0.03312000000000004,5.000378781950543,0.022494235156274286,0.012500572851468439,0
829,0.03316000000000008,5.000378781950543,0.020521496138282788,0.010517649355074467,0
830,0.033199999999999896,5.000707572102282,0.016904807950460177,0.006890909494059648,0
831,0.033239999999999936,5.000049991798719,0.016247228281592724,0.006223411086037467,0
832,0.033279999999999976,4.99972120164681,0.01756238761983417,0.0075287847471861985,0
833,0.033320000000000016,5.000378781950543,0.012301750279031881,0.0022584949185727628,0
834,0.033360000000000056,5.000049991798719,0.007369902801517392,-0.00268287173105914,0
835,0.033400000000000096,5.000049991798719,0.003424424840084442,-0.006637735423313355,0
836,0.033439999999999914,5.000049991798719,0.008027482463535476,-0.0020439299645970653,0
837,0.033479999999999954,5.000378781950543,0.001122896037706475,-0.008957634865098325,0
838,0.033519999999999994,4.99972120164681,0.0014516858662357995,-0.008637829698019562,0
839,0.033560000000000034,5.000049991798719,0.001780475694892425,-0.00831789059525163,0
840,0.033600000000000074,5.000707572102282,-0.0008498429307955274,-0.010956925889747633,0
841,0.033640000000000114,4.99972120164681,-0.0024937920677107622,-0.012609457517695231,0
842,0.03367999999999993,5.000378781950543,-0.007754429284417372,-0.017878542927789547,0
843,0.03371999999999997,5.000049991798719,-0.006439269983302923,-0.016571697403377585,0
844,0.03376000000000001,4.99972120164681,-0.009727168232258263,-0.019867774894140315,0
845,0.03380000000000005,4.99972120164681,-0.012028696998925656,-0.022177348250343162,0
846,0.03384000000000009,5.000049991798719,-0.00808321910937683,-0.018239780181516344,0
847,0.03387999999999991,5.000049991798719,-0.0090695885834889,-0.01923392459183311,0
848,0.03391999999999995,4.99972120164681,-0.0116999071754995,-0.02187188312066718,0
849,0.03395999999999999,5.000049991798719,-0.014330225759327644,-0.024509706527915905,0
850,0.03400000000000003,5.000049991798719,-0.015316595226152155,-0.025503445591580978,0
851,0.03404000000000007,4.99972120164681,-0.0113711173519455,-0.02156520197530458,0
852,0.03408000000000011,5.000378781950543,-0.018933283261316228,-0.029134466692214114,0
853,0.03411999999999993,5.000049991798719,-0.019590862902407788,-0.029799009579823364,0
854,0.03415999999999997,4.99972120164681,-0.01696054433496612,-0.02717551858810232,0
855,0.03420000000000001,5.000049991798719,-0.017618123977595282,-0.027839790026735096,0
856,0.03424000000000005,4.99972120164681,-0.017289334156344746,-0.027517556113709537,0
857,0.03428000000000009,4.99972120164681,-0.018933283261316228,-0.029167925131926335,0
858,0.034319999999999906,5.001036362253937,0.004739584158527918,-0.0055013415240097036,0
859,0.034359999999999946,4.99972120164681,-0.031098506538410467,-0.04134557982608477,0
860,0.034399999999999986,5.000049991798719,-0.02320755091924319,-0.03346063550065789,0
861,0.034440000000000026,5.000049991798719,-0.022549971280973066,-0.032808930740996015,0
862,0.034480000000000066,4.99972120164681,-0.02090602218305261,-0.031170720003687768,0
863,0.034520000000000106,5.000049991798719,-0.025509079649145103,-0.035779379210406796,0
864,0.034559999999999924,4.99972120164681,-0.025509079649145103,-0.03578484422993456,0
865,0.034599999999999964,5.000049991798719,-0.024851500012672237,-0.035132592791656356,0
866,0.034640000000000004,4.999392411494816,-0.023865130556999917,-0.0341514146134923,0
867,0.034680000000000044,5.000378781950543,-0.026495449102891075,-0.03678678741773527,0
868,0.034720000000000084,5.000378781950543,-0.024193920375685754,-0.03449017583214082,0
869,0.0347599999999999,5.000378781950543,-0.021892391642189743,-0.0321934270268179,0
870,0.03479999999999994,5.000707572102282,-0.0228787611001723,-0.033184439103728924,0
871,0.03483999999999998,5.000378781950543,-0.029125767640559533,-0.039435950858885335,0
872,0.03488000000000002,4.999392411494816,-0.025509079649145103,-0.03582363058406054,0
873,0.03492000000000006,5.000378781950543,-0.023865130556999917,-0.034183911617201815,0
874,0.0349600000000001,4.99972120164681,-0.025509079649145103,-0.035831953151105544,0
875,0.03499999999999992,5.000378781950543,-0.02320755091924319,-0.03353437908811064,0
876,0.03503999999999996,5.000049991798719,-0.023865130556999917,-0.03419577552750256,0
877,0.03508,4.99972120164681,-0.021563601822605624,-0.031897925639956935,0
878,0.03512000000000004,5.000378781950543,-0.022549971280973066,-0.0328878359017796,0
879,0.03516000000000008,5.000378781950543,-0.025837869467188898,-0.0361791367603603,0
880,0.0351999999999999,4.99972120164681,-0.020577232363083744,-0.030921764110745032,0
881,0.03523999999999994,5.000049991798719,-0.021892391642189743,-0.03224004954059567,0
882,0.03527999999999998,5.000378781950543,-0.021234812002893247,-0.03158545766334494,0
883,0.03532000000000002,5.000049991798719,-0.024193920375685754,-0.03454741532544944,0
884,0.03536000000000006,5.000049991798719,-0.022549971280973066,-0.032906176964201055,0
885,0.0354000000000001,5.000049991798719,-0.019590862902407788,-0.02994964068106154,0
886,0.035439999999999916,5.000378781950543,-0.022549971280973066,-0.0329111824357485,0
887,0.035479999999999956,5.000707572102282,-0.020248442542986647,-0.030611948274241612,0
888,0.035519999999999996,5.000049991798719,-0.020248442542986647,-0.030614103971670595,0
889,0.035560000000000036,5.000049991798719,-0.023865130556999917,-0.03423280872558571,0
890,0.035600000000000076,5.000049991798719,-0.01630296469182467,-0.02667252056524267,0
891,0.035639999999999894,4.99972120164681,-0.018933283261316228,-0.029304577727890514,0
892,0.035679999999999934,5.000049991798719,-0.017946913798717698,-0.028319807671104508,0
893,0.035719999999999974,5.000378781950543,-0.02090602218305261,-0.031280376199180886,0
894,0.035760000000000014,5.000049991798719,-0.022549971280973066,-0.032925646104987175,0
895,0.035800000000000054,4.99972120164681,-0.01630296469182467,-0.026679820915029257,0
896,0.035840000000000094,5.000049991798719,-0.017618123977595282,-0.027996022119402192,0
897,0.03587999999999991,5.000378781950543,-0.0166317545134594,-0.027010555022336763,0
898,0.03591999999999995,5.000378781950543,-0.00874079875891258,-0.01912036201333608,0
899,0.03595999999999999,5.000049991798719,-0.012357486822223915,-0.02273767313163011,0
900,0.03600000000000003,5.000707572102282,-0.014001435936796827,-0.024382105542538703,0
901,0.03604000000000007,5.000049991798719,-0.017946913798717698,-0.028327926875022252,0
902,0.03608000000000011,4.999392411494816,-0.020248442542986647,-0.030629659197914567,0
903,0.03611999999999993,5.001693942556992,-0.018275703619711994,-0.028656983896119467,0
904,0.03615999999999997,4.9967620902758165,-0.01860449344057817,-0.028985697317080793,0
905,0.03620000000000001,4.99972120164681,-0.01630296469182467,-0.026683952083763503,0
906,0.03624000000000005,5.000049991798719,-0.01301506646843685,-0.023395697228846584,0
907,0.03628000000000009,5.000707572102282,-0.018275703619711994,-0.02865583754029123,0
908,0.03631999999999991,5.001365152405508,-0.010384747880516562,-0.020764244692600235,0
909,0.03635999999999995,5.000707572102282,-0.011042327528263687,-0.021421046903797515,0
910,0.03639999999999999,4.999392411494816,-0.014330225759327644,-0.024708027311844676,0
911,0.03644000000000003,4.998077250885994,-0.01564538504817102,-0.02602212833377027,0
912,0.03648000000000007,5.000707572102282,-0.01564538504817102,-0.026020929566498176,0
913,0.03652000000000011,5.000378781950543,-0.0116999071754995,-0.022074112370729718,0
914,0.036559999999999926,4.99972120164681,-0.00939837840793746,-0.019771103669760207,0
915,0.036599999999999966,5.000049991798719,-0.009727168232258263,-0.020098272896864246,0
916,0.036640000000000006,5.000049991798719,-0.010713537704454032,-0.021082881055524187,0
917,0.036680000000000046,5.000049991798719,-0.013343856291351444,-0.023711297561047964,0
918,0.036720000000000086,5.000049991798719,-0.022221181461645576,-0.032586579831604984,0
919,0.036759999999999904,5.000378781950543,-0.0005210531030302584,-0.010884267705358469,0
920,0.036799999999999944,5.000049991798719,-0.005452900506126915,-0.015813790424396273,0
921,0.036839999999999984,5.000378781950543,-0.00874079875891258,-0.019099223029161047,0
922,0.036880000000000024,4.99972120164681,-0.006768059808773,-0.017123877420505324,0
923,0.036920000000000064,5.000049991798719,-0.0090695885834889,-0.01942265848067979,0
924,0.036960000000000104,4.99972120164681,-0.005124110680146385,-0.015474291762245695,0
925,0.03699999999999992,5.000049991798719,-0.007425639459330238,-0.01777279058227013,0
926,0.03703999999999996,5.000049991798719,-0.0047953208540382625,-0.015139300831242458,0
927,0.03708,5.000378781950543,-0.007096849634115457,-0.017437517237510435,0
928,0.03712000000000004,5.000378781950543,-0.0047953208540382625,-0.01513253481506648,0
929,0.03716000000000008,4.99972120164681,-0.004137741201439435,-0.0144713602120745,0
930,0.0371999999999999,4.999392411494816,-0.006439269983302923,-0.016769152697066747,0
931,0.03723999999999994,5.000049991798719,-0.0047953208540382625,-0.015121325887020177,0
932,0.03727999999999998,5.000378781950543,-0.0005210531030302584,-0.01084303903490811,0
933,0.03732000000000002,5.000049991798719,-0.003808951374948702,-0.014126776750011866,0
934,0.03736000000000006,4.99972120164681,-0.005124110680146385,-0.015437634008320801,0
935,0.0374000000000001,4.99972120164681,-0.004466531027802631,-0.014775610785677736,0
936,0.03743999999999992,4.999392411494816,-0.003808951374948702,-0.014113446006806342,0
937,0.03747999999999996,5.000049991798719,-0.0024937920677107622,-0.012793559986556024,0
938,0.03752,4.99972120164681,-0.00808321910937683,-0.018378118697970788,0
939,0.03756000000000004,5.000049991798719,-0.006439269983302923,-0.016729159595197315,0
940,0.03760000000000008,5.000707572102282,-0.0028225818947114484,-0.013107319855285206,0
941,0.037639999999999896,4.99972120164681,-0.006439269983302923,-0.016718714590800682,0
942,0.037679999999999936,5.000378781950543,-0.004466531027802631,-0.014740540554375143,0
943,0.037719999999999976,5.000378781950543,-0.00348016154833046,-0.013748594241076825,0
944,0.037760000000000016,4.99972120164681,-0.0018362124133269458,-0.012098926495338776,0
945,0.037800000000000056,4.99972120164681,-0.0005210531030302584,-0.010777906774437698,0
946,0.037840000000000096,4.999392411494816,0.00013652655288240445,-0.010114324886137237,0
947,0.037879999999999914,5.000049991798719,-0.0005210531030302584,-0.01076576046701495,0
948,0.037919999999999954,5.000049991798719,0.001780475694892425,-0.008457945731598061,0
949,0.037959999999999994,4.99972120164681,0.0004653163810297567,-0.009766677226748694,0
950,0.038000000000000034,5.000049991798719,-0.001178632758433426,-0.011404056648578773,0
951,0.038040000000000074,5.000049991798719,-0.001178632758433426,-0.011397345015378525,0
952,0.038080000000000114,4.99972120164681,0.0004653163810297567,-0.009746542311560902,0
953,0.03811999999999993,4.999392411494816,0.008027482463535476,-0.002177380719020419,0
954,0.03815999999999997,5.000049991798719,-0.002165002240582567,-0.012362727953959998,0
955,0.03820000000000001,5.000049991798719,-0.0047953208540382625,-0.014985767126694739,0
956,0.03824000000000005,4.99972120164681,0.004739584158527918,-0.005443440690532701,0
957,0.03828000000000009,5.000378781950543,0.00013652655288240445,-0.010038934879443233,0
958,0.03831999999999991,5.000049991798719,-0.0047953208540382625,-0.01496307686729564,0
959,0.03835999999999995,5.000049991798719,-0.00808321910937683,-0.01824312769311042,0
960,0.03839999999999999,4.99972120164681,-0.006439269983302923,-0.016591189120008634,0
961,0.03844000000000003,4.99972120164681,-0.009727168232258263,-0.01987095589845889,0
962,0.03848000000000007,5.000049991798719,-0.011042327528263687,-0.02117784169558618,0
963,0.03852000000000011,5.000049991798719,-0.0113711173519455,-0.021498215988199974,0
964,0.03855999999999993,5.000049991798719,-0.006768059808773,-0.01688660087903352,0
965,0.03859999999999997,5.000378781950543,-0.005781690331979852,-0.01589153179966696,0
966,0.03864000000000001,4.99972120164681,-0.0015074225859438989,-0.011608422413908925,0
967,0.03868000000000005,5.000378781950543,-0.00808321910937683,-0.01817523526098795,0
968,0.03872000000000009,5.000049991798719,-0.00808321910937683,-0.01816610954960692,0
969,0.038759999999999906,4.99972120164681,-0.010055958056451306,-0.020129580752967426,0
970,0.038799999999999946,5.000049991798719,-0.007096849634115457,-0.017161062558370088,0
971,0.038839999999999986,5.000378781950543,-0.0047953208540382625,-0.014849981982362245,0
972,0.038880000000000026,5.000049991798719,-0.004137741201439435,-0.014182708516136632,0
973,0.038920000000000066,5.000049991798719,-0.0024937920677107622,-0.012528923558154409,0
974,0.038960000000000106,4.99972120164681,-0.004466531027802631,-0.014491684691533366,0
975,0.038999999999999924,5.000049991798719,-0.005452900506126915,-0.015467934349952535,0
976,0.039039999999999964,5.000378781950543,-0.005124110680146385,-0.015128882721243266,0
977,0.039080000000000004,5.000378781950543,-0.005124110680146385,-0.015118478947162596,0
978,0.039120000000000044,5.000049991798719,-0.010055958056451306,-0.02003978059061143,0
979,0.039160000000000084,5.000378781950543,-0.006439269983302923,-0.016412404839514578,0
980,0.0391999999999999,5.000378781950543,-0.0005210531030302584,-0.010483358350992216,0
981,0.03923999999999994,5.000378781950543,0.003424424840084442,-0.006526908885227521,0
982,0.03927999999999998,5.000707572102282,0.006054743479005864,-0.0038854768262681118,0
983,0.03932000000000002,5.000378781950543,-0.0047953208540382625,-0.014724285860011673,0
984,0.03936000000000006,5.000049991798719,-0.0090695885834889,-0.018987156430139276,0
985,0.0394000000000001,5.000049991798719,-0.013672646114138112,-0.023578674961799426,0
986,0.03943999999999992,5.000049991798719,-0.014987805404005308,-0.024882153434485944,0
987,0.03947999999999996,4.99972120164681,-0.007754429284417372,-0.017636954702119727,0
988,0.03952,5.000049991798719,-0.0047953208540382625,-0.014665881887079926,0
989,0.03956000000000004,4.99972120164681,0.001780475694892425,-0.008077979206444135,0
990,0.03960000000000008,5.000049991798719,0.004410794328726292,-0.005435412719823091,0
991,0.0396399999999999,5.000378781950543,-0.0031513717215847087,-0.012985189223353177,0
992,0.03967999999999994,5.000378781950543,-0.00808321910937683,-0.017904505398586568,0
993,0.03971999999999998,4.99972120164681,-0.010055958056451306,-0.019864571496669543,0
994,0.03976000000000002,5.000049991798719,-0.010713537704454032,-0.02050933668972371,0
995,0.03980000000000006,5.000378781950543,-0.0031513717215847087,-0.012934214677556701,0
996,0.0398400000000001,5.000049991798719,-0.004466531027802631,-0.01423627641286948,0
997,0.039879999999999916,5.000378781950543,-0.003808951374948702,-0.013565457681379928,0
998,0.039919999999999956,4.99972120164681,-0.006110480157705198,-0.015853605912784063,0
999,0.039959999999999996,5.000707572102282,-0.010713537704454032,-0.02044314147161584,0
1000,0.040000000000000036,5.000049991798719,-0.015316595226152155,-0.02503253560612405,0
1001,0.040040000000000076,4.999392411494816,-0.01926207308192608,-0.028964208713868338,0
1002,0.040080000000000116,4.999392411494816,-0.025509079649145103,-0.03519726921179391,0
1003,0.040119999999999933,5.000378781950543,-0.027481818555480722,-0.03715592076829243,0
1004,0.040159999999999973,4.99972120164681,-0.030769716722423582,-0.040429590346720404,0
1005,0.040200000000000014,5.000049991798719,-0.04129099077011207,-0.05093649461022927,0
1006,0.040240000000000054,5.000049991798719,-0.048853156410254436,-0.05848414931468905,0
1007,0.040280000000000094,4.999392411494816,-0.06463506709067811,-0.07425140795323906,0
1008,0.04031999999999991,4.99972120164681,-0.07318360191751903,-0.08278514967847869,0
1009,0.04035999999999995,5.000049991798719,-0.0840336652245519,-0.09362027887179913,0
1010,0.04039999999999999,5.000378781950543,-0.1027746833278755,-0.1123462218980701,0
1011,0.04044000000000003,5.000049991798719,-0.11526869515917111,-0.12482501773889948,0
1012,0.04048000000000007,5.000049991798719,-0.1330233432223299,-0.14256430894926203,0
1013,0.04052000000000011,5.000049991798719,-0.1468325136701073,-0.15635798173415527,0
1014,0.04055999999999993,4.99972120164681,-0.15702499646856433,-0.16653482611304232,0
1015,0.04059999999999997,5.000049991798719,-0.17477964361612697,-0.1842736941389125,0
1016,0.04064000000000001,4.999063621342738,-0.1908903416136964,-0.20036847236839336,0
1017,0.04068000000000005,4.99972120164681,-0.20700103928604185,-0.2164631096831445,0
1018,0.04072000000000009,5.000049991798719,-0.22311173663152228,-0.23255760613958004,0
1019,0.04075999999999991,5.000049991798719,-0.25631949950946953,-0.26574902765625297,0
1020,0.04079999999999995,5.000378781950543,-0.28163630788574023,-0.29104935425940803,0
1021,0.04083999999999999,4.99972120164681,-0.2961030551589063,-0.3054994794091741,0
1022,0.04088000000000003,5.000049991798719,-0.3125425403677243,-0.32192220220703444,0
1023,0.04092000000000007,5.000049991798719,-0.3250365488914117,-0.334399308096104,0
1024,0.04096000000000011,4.99972120164681,-0.3395032953483747,-0.3488490117598584,0
1025,0.040999999999999925,5.000378781950543,-0.3569291486706736,-0.3662576821966002,0
1026,0.041039999999999965,4.99972120164681,-0.3779716879978605,-0.3872828986132992,0
1027,0.041080000000000005,5.000049991798719,-0.39342480244243594,-0.4027185501910496,0
1028,0.041120000000000045,5.000049991798719,-0.413152182121866,-0.4224283271170887,0
1029,0.041160000000000085,5.000049991798719,-0.4394553542159082,-0.44871375664212404,0
1030,0.0411999999999999,5.000049991798719,-0.4588539430369972,-0.46809446315072045,0
1031,0.04123999999999994,5.000049991798719,-0.47792374171890073,-0.48714623984995836,0
1032,0.04127999999999998,5.000049991798719,-0.4940344333218808,-0.5032387698745961,0
1033,0.04132000000000002,5.000049991798719,-0.5160633375900978,-0.525249373044476,0
1034,0.04136000000000006,5.000378781950543,-0.5380922411883375,-0.5472598361012525,0
1035,0.0414000000000001,4.99972120164681,-0.5640666191914754,-0.5732156341978575,0
1036,0.04143999999999992,4.99972120164681,-0.5903697858273863,-0.5995000816414129,0
1037,0.04147999999999996,5.000049991798719,-0.6100971601646257,-0.6192085975809106,0
1038,0.04152,5.000707572102282,-0.6314684817406779,-0.6405609216354624,0
1039,0.04156000000000004,5.000049991798719,-0.6571140667719391,-0.6661873701042826,0
1040,0.04160000000000008,5.000378781950543,-0.6798005450510047,-0.6888545728639786,0
1041,0.0416399999999999,4.99972120164681,-0.7047885492511904,-0.7138231626730713,0
1042,0.04167999999999994,5.000378781950543,-0.7218856042336069,-0.7309006644790724,0
1043,0.04171999999999998,5.000049991798719,-0.7481887649101926,-0.7571841332815168,0
1044,0.04176000000000002,5.000049991798719,-0.7626555028487565,-0.7716310407370065,0
1045,0.04180000000000006,4.99972120164681,-0.7744919245685616,-0.7834474934547946,0
1046,0.0418400000000001,5.000378781950543,-0.7863283460807317,-0.7952638075371924,0
1047,0.04187999999999992,4.999392411494816,-0.7883010829791943,-0.7972162986705139,0
1048,0.04191999999999996,4.99972120164681,-0.7984935568623,-0.8073883885466957,0
1049,0.04196,5.000049991798719,-0.7952056620782073,-0.8040799716086837,0
1050,0.04200000000000004,5.000378781950543,-0.7902738198718682,-0.7991274691974172,0
1051,0.04204000000000008,4.99972120164681,-0.7751495035469133,-0.7839823547137165,0
1052,0.042079999999999895,5.000378781950543,-0.7708752401761759,-0.7796871553288063,0
1053,0.042119999999999935,5.000707572102282,-0.7596963973864385,-0.768487238769063,0
1054,0.042159999999999975,5.000378781950543,-0.7504902914210525,-0.7592599213786362,0
1055,0.042200000000000015,5.000378781950543,-0.7370099217466426,-0.7457582027261521,0
1056,0.042240000000000055,4.99972120164681,-0.7189264985940876,-0.7276532931456945,0
1057,0.042280000000000095,5.000049991798719,-0.7021582330622591,-0.7108634038405441,0
1058,0.04231999999999991,5.000378781950543,-0.689993020557742,-0.6986764303229007,0
1059,0.04235999999999995,5.000049991798719,-0.6771702287668184,-0.6858317403858676,0
1060,0.04239999999999999,5.000378781950543,-0.6581004354081691,-0.6667399118561534,0
1061,0.04244000000000003,5.000049991798719,-0.645606432579457,-0.6542237369406569,0
1062,0.04248000000000007,5.000049991798719,-0.634427587753811,-0.6430225832229493,0
1063,0.04252000000000011,4.99972120164681,-0.6196320575633905,-0.6282046074468398,0
1064,0.04255999999999993,5.000049991798719,-0.6100971601646257,-0.6186471278816161,0
1065,0.04259999999999997,5.000378781950543,-0.5995758939198903,-0.6081031430037174,0
1066,0.04264000000000001,4.99972120164681,-0.5818212567773549,-0.590325650876588,0
1067,0.04268000000000005,4.99972120164681,-0.5778757817965068,-0.586357184676199,0
1068,0.04272000000000009,5.000049991798719,-0.5620938816546617,-0.5705521571975585,0
1069,0.04275999999999991,5.000378781950543,-0.5495998771285617,-0.558034889336311,0
1070,0.04279999999999995,5.000049991798719,-0.5400649787911729,-0.5484765917855343,0
1071,0.04283999999999999,5.000049991798719,-0.5278997634876254,-0.536287841511681,0
1072,0.04288000000000003,4.999392411494816,-0.5183648648631194,-0.5267292722824839,0
1073,0.04292000000000007,4.99972120164681,-0.5085011764987045,-0.5168417778027375,0
1074,0.04296000000000011,4.99972120164681,-0.48844500974477834,-0.4967616695477958,0
1075,0.04299999999999993,5.001036362253937,-0.4798964794852818,-0.48818906252776717,0
1076,0.04303999999999997,5.000707572102282,-0.46247062903194625,-0.4707390001817623,0
1077,0.04308000000000001,5.000378781950543,-0.4509629917136504,-0.4592070159672506,0
1078,0.04312000000000005,5.000049991798719,-0.4351810888140205,-0.443400631297661,0
1079,0.04316000000000009,4.99972120164681,-0.4190703959241243,-0.42726532189507554,0
1080,0.043199999999999905,5.000049991798719,-0.4039460716695229,-0.41211624651728135,0
1081,0.043239999999999945,4.99972120164681,-0.3871777987690337,-0.39532308801653376,0
1082,0.043279999999999985,5.000378781950543,-0.3697519461428792,-0.3778722154477052,0
1083,0.043320000000000025,4.99972120164681,-0.3506821446953907,-0.35877725985098824,0
1084,0.043360000000000065,4.99972120164681,-0.333585080921812,-0.3416549078586991,0
1085,0.043400000000000105,5.000049991798719,-0.3164880167655977,-0.32453242155257583,0
1086,0.04343999999999992,5.000049991798719,-0.3007061110527094,-0.3087249598980739,0
1087,0.04347999999999996,5.000049991798719,-0.28295146673991745,-0.29094462599266857,0
1088,0.04352,5.000049991798719,-0.2658544014620183,-0.27382173761307205,0
1089,0.04356000000000004,5.000049991798719,-0.2480997563536102,-0.25604113603700857,0
1090,0.04360000000000008,5.000049991798719,-0.22870116216450587,-0.23661645215862642,0
1091,0.0436399999999999,5.000707572102282,-0.21686473157728053,-0.22475379880604546,0
1092,0.04367999999999994,5.000378781950543,-0.20042524435712428,-0.20828795589120902,0
1093,0.04371999999999998,5.000707572102282,-0.18464333630621427,-0.19247955936425595,0
1094,0.04376000000000002,5.000049991798719,-0.17083416650610883,-0.17864376845591456,0
1095,0.04380000000000006,5.000049991798719,-0.1557098374050238,-0.16349268576477854,0
1096,0.0438400000000001,5.000707572102282,-0.14255824665188005,-0.15031420909135376,0
1097,0.04387999999999992,5.000378781950543,-0.12644754768848476,-0.1341764920302391,0
1098,0.04391999999999996,4.99972120164681,-0.11198079732731327,-0.11968259154790772,0
1099,0.04396,5.000049991798719,-0.09850041607873007,-0.10617492830992797,0
1100,0.04400000000000004,5.000378781950543,-0.08271850604340404,-0.09036560457337828,0
1101,0.04404000000000008,5.000049991798719,-0.06989570391761903,-0.07751525719215713,0
1102,0.0440799999999999,5.000378781950543,-0.05181226468559495,-0.059404141309303604,0
1103,0.04411999999999994,5.000049991798719,-0.033071245431629134,-0.04063531416913774,0
1104,0.04415999999999998,4.99972120164681,-0.01630296469182467,-0.02383909446898841,0
1105,0.04420000000000002,4.999392411494816,0.00013652655288240445,-0.007371533352220072,0
1106,0.04424000000000006,5.000707572102282,0.02019270630239349,0.012712847017438356,0
1107,0.0442800000000001,5.000378781950543,0.03893372714954513,0.03148219906799149,0
1108,0.044319999999999915,5.000378781950543,0.05734595855501376,0.049922892094082794,0
1109,0.044359999999999955,5.000049991798719,0.07838850921225148,0.07099403462193088,0
1110,0.044399999999999995,4.999063621342738,0.09614316172460258,0.08877740908644632,0
1111,0.044440000000000035,5.000378781950543,0.11948724242641957,0.11215034165234844,0
1112,0.044480000000000075,5.000378781950543,0.13757068564758101,0.130262766478683,0
1113,0.044520000000000115,4.998406041038327,0.1549965494630596,0.14771774146839228,0
1114,0.04455999999999993,5.001365152405508,0.17275120351076823,0.16550163608616048,0
1115,0.04459999999999997,4.999063621342738,0.1780118418144401,0.17079164418129367,0
1116,0.04464000000000001,4.999392411494816,0.19510891651289003,0.18791821771698236,0
1117,0.04468000000000005,5.001365152405508,0.20299987417473864,0.19583880308502677,0
1118,0.04472000000000009,5.000049991798719,0.2095756722785343,0.20244435758595858,0
1119,0.04475999999999991,4.999392411494816,0.21023325209152194,0.20313182230780974,0
1120,0.04479999999999995,5.001036362253937,0.21450752088748404,0.207436104343953,0
1121,0.04483999999999999,4.99972120164681,0.21450752088748404,0.20746624573384603,0
1122,0.04488000000000003,5.000049991798719,0.20398624388728276,0.19697523809044865,0
1123,0.04492000000000007,5.000378781950543,0.1983968155303359,0.19141620687322136,0
1124,0.04496000000000011,5.000049991798719,0.1924785973075063,0.18552851338783832,0
1125,0.04499999999999993,5.000378781950543,0.18787553871644425,0.18095610694556696,0
1126,0.04503999999999997,5.000049991798719,0.1789982114997947,0.17210955910147596,0
1127,0.04508000000000001,5.000049991798719,0.173408783297048,0.16655103730628645,0
1128,0.04512000000000005,5.000378781950543,0.16222992699566194,0.1554032142574946,0
1129,0.04516000000000009,5.000707572102282,0.15401017980404885,0.14721462697235932,0
1130,0.04519999999999991,4.99972120164681,0.14611922257114063,0.139354956107468,0
1131,0.04523999999999995,5.000049991798719,0.13526915648987867,0.12853630266222826,0
1132,0.04527999999999999,5.000049991798719,0.13395399697386687,0.1272526818555222,0
1133,0.04532000000000003,5.000049991798719,0.12935093868316216,0.12268128815149748,0
1134,0.04536000000000007,5.000049991798719,0.12967972856027796,0.12304186829557223,0
1135,0.04540000000000011,5.000378781950543,0.12737819942302714,0.12077225490727822,0
1136,0.045439999999999925,5.000378781950543,0.13066609819235642,0.1240921947080969,0
1137,0.045479999999999965,5.000378781950543,0.12770698929941152,0.12116525192852601,0
1138,0.045520000000000005,5.000378781950543,0.13526915648987867,0.12875971011242276,0
1139,0.045560000000000045,5.000049991798719,0.13757068564758101,0.13109365494060138,0
1140,0.045600000000000085,5.000378781950543,0.14381769339134592,0.13737320282770116,0
1141,0.0456399999999999,5.001036362253937,0.1520374404892899,0.14562561433647186,0
1142,0.04567999999999994,5.000049991798719,0.15828444833427735,0.151905410653233,0
1143,0.04571999999999998,4.99972120164681,0.16913451469481428,0.16278838933876755,0
1144,0.04576000000000002,5.000378781950543,0.17768305191956152,0.17136996253283626,0
1145,0.04580000000000006,5.000378781950543,0.18820432861503028,0.18192439863187365,0
1146,0.0458400000000001,5.000378781950543,0.1997119751406453,0.19346532778405223,0
1147,0.04587999999999992,5.000378781950543,0.2115484117189183,0.20533516999945678,0
1148,0.04591999999999996,5.000049991798719,0.22502879800877845,0.21884908472341652,0
1149,0.04596,4.99972120164681,0.23785160466341704,0.2317055423943502,0
1150,0.04600000000000004,4.99972120164681,0.25001683165449984,0.24390454276797985,0
1151,0.04604000000000008,5.000378781950543,0.26382600843261955,0.25774761507778393,0
1152,0.0460799999999999,5.000049991798719,0.27434728611544534,0.2683029102231481,0
1153,0.04611999999999994,5.000378781950543,0.28782767331967274,0.28181743660131614,0
1154,0.04615999999999998,5.000049991798719,0.29834895127214406,0.2923729752185126,0
1155,0.04620000000000002,5.000378781950543,0.3121581287629312,0.3062165346430266,0
1156,0.04624000000000006,5.000378781950543,0.3256385165076316,0.3197314253675092,0
1157,0.0462800000000001,5.000707572102282,0.3391189044431933,0.3332464371048003,0
1158,0.04631999999999992,5.000049991798719,0.3542432423529978,0.34840551941301334,0
1159,0.04635999999999996,5.000378781950543,0.36509331100000664,0.35929045282868277,0
1160,0.0464,4.999392411494816,0.3795600693854337,0.3737921961254381,0
1161,0.04644000000000004,5.000049991798719,0.39468440792774523,0.38895163949300526,0
1162,0.04648000000000008,5.000378781950543,0.4048768970774877,0.39917935315203334,0
1163,0.046519999999999895,4.999392411494816,0.42624824563795427,0.42058604567476543,0
1164,0.046559999999999935,5.000049991798719,0.4351255751759297,0.4294988383957846,0
1165,0.046599999999999975,5.000378781950543,0.4482771746372879,0.44268602002761237,0
1166,0.046640000000000015,5.000378781950543,0.46405909421964814,0.45850364053336645,0
1167,0.046680000000000055,4.99972120164681,0.4785258540547695,0.4730062198091556,0
1168,0.046720000000000095,5.000049991798719,0.49693809414451995,0.4914543976200506,0
1169,0.04675999999999991,4.99972120164681,0.5091033243868143,0.5036556836260222,0
1170,0.04679999999999995,5.000378781950543,0.5285019350723902,0.5230904678787175,0
1171,0.04683999999999999,5.000049991798719,0.5429686958216059,0.5375935197582589,0
1172,0.04688000000000003,5.000049991798719,0.5538187665161218,0.5484799989049267,0
1173,0.04692000000000007,5.000049991798719,0.5682855276179954,0.5629832855382553,0
1174,0.04696000000000011,5.000378781950543,0.577491648423335,0.5722260487106875,0
1175,0.04699999999999993,5.000378781950543,0.5873553493756754,0.5821265086209527,0
1176,0.04703999999999997,5.000049991798719,0.6057675913997554,0.6005756259478436,0
1177,0.04708000000000001,5.000049991798719,0.6116858121181733,0.6065308380668747,0
1178,0.04712000000000005,5.000378781950543,0.6222070934764328,0.6170892266753284,0
1179,0.04716000000000009,5.000049991798719,0.6330571649854112,0.627976521034725,0
1180,0.04719999999999991,5.000378781950543,0.637660225658677,0.6326169199081411,0
1181,0.04723999999999995,5.000378781950543,0.6396329659532398,0.6346271135009589,1
1182,0.04727999999999999,5.000378781950543,0.6393041759038953,0.6343358915952124,0
1183,0.04732000000000003,5.000378781950543,0.6350299052715439,0.6300993036979071,0
1184,0.04736000000000007,5.000049991798719,0.6337147450803869,0.6288219405782176,0
1185,0.04740000000000011,5.000049991798719,0.6254949939221117,0.6206401005716722,0
1186,0.04743999999999993,4.999392411494816,0.6106994419961532,0.6058825736204174,0
1187,0.04747999999999997,4.99972120164681,0.603137271091026,0.5983585412545512,0
1188,0.04752000000000001,4.99972120164681,0.582752288919754,0.5780118109275546,0
1189,0.04756000000000005,5.000378781950543,0.5607233570170068,0.5560212439134283,0
1190,0.04760000000000009,4.99972120164681,0.5373792655081296,0.532715630075723,0
1191,0.047639999999999905,4.99972120164681,0.521926134798924,0.5173010895573219,0
1192,0.047679999999999945,4.99972120164681,0.5071305843376693,0.5025442415424626,0
1193,0.047719999999999985,5.000378781950543,0.4962805141355612,0.491732985777176,0
1194,0.047760000000000025,5.000378781950543,0.4768819040630457,0.47237330186562115,0
1195,0.047800000000000065,5.000049991798719,0.45189386451958785,0.4474242999398534,0
1196,0.047840000000000105,4.99972120164681,0.4190148660733039,0.4145844502994583,0
1197,0.04787999999999992,5.000049991798719,0.39665714775489636,0.39226599170548787,0
1198,0.04791999999999996,5.000378781950543,0.3719979002024722,0.36764611452527957,0
1199,0.04796,4.99972120164681,0.3519417126557048,0.34762940772662065,0
1200,0.04800000000000004,4.99972120164681,0.330899155679342,0.3266264416012577,0
1201,0.04804000000000008,5.000049991798719,0.3131444985914166,0.3089114851931088,0
1202,0.0480799999999999,4.99972120164681,0.29308831228119847,0.2888951091162177,0
1203,0.04811999999999994,5.000049991798719,0.26875785733166124,0.26460457367722123,0
1204,0.04815999999999998,4.99972120164681,0.243769823179611,0.23965656803548038,0
1205,0.04820000000000002,4.99972120164681,0.21911057961317715,0.2150374617005724,0
1206,0.04824000000000006,5.000049991798719,0.1960952862168741,0.192062413977354,0
1207,0.0482800000000001,4.99972120164681,0.1789982114997947,0.1750056930941559,0
1208,0.04831999999999992,5.000049991798719,0.16222992699566194,0.1582778703028362,0
1209,0.04835999999999996,5.000049991798719,0.15006470117888354,0.14615321379483628,0
1210,0.0484,5.000707572102282,0.13033730831487508,0.12646649755150569,0
1211,0.04844000000000004,5.000049991798719,0.12277514116645709,0.11894511405050007,0
1212,0.04848000000000008,5.000378781950543,0.11521297408265467,0.111423837354583,0
1213,0.0485199999999999,5.000378781950543,0.10633564758869515,0.10258750770162509,0
1214,0.04855999999999994,5.000378781950543,0.10502048811571825,0.10131345123431561,0
1215,0.04859999999999998,4.99972120164681,0.10107500970858954,0.09740918170797731,0
1216,0.04864000000000002,4.99972120164681,0.10699322732592072,0.10336871379058794,0
1217,0.04868000000000006,4.99972120164681,0.11093870575958677,0.10735561198229908,0
1218,0.0487200000000001,5.000049991798719,0.11981603229987327,0.11627446328058484,0
1219,0.048759999999999915,5.000049991798719,0.12672061967062423,0.12322068011539128,0
1220,0.048799999999999955,5.000378781950543,0.13362520709516806,0.1301670014150637,0
1221,0.048839999999999995,5.000049991798719,0.14348890350900304,0.14007253581903356,0
1222,0.048880000000000035,5.000378781950543,0.14809196187283277,0.14471753599085563,0
1223,0.048920000000000075,5.000049991798719,0.15269502026039275,0.14936263970603592,0
1224,0.048960000000000115,5.000378781950543,0.15959960788614316,0.15630937587972632,0
1225,0.04899999999999993,5.000049991798719,0.16453145622281592,0.16128347568427315,0
1226,0.04903999999999997,5.000049991798719,0.15729807867164466,0.15409245221944892,0
1227,0.04908000000000001,5.000707572102282,0.17669668223564464,0.17353351218573365,0
1228,0.04912000000000005,5.000378781950543,0.19280738720776225,0.1896867755724661,0
1229,0.04916000000000009,5.000378781950543,0.1960952862168741,0.1930173347038444,0
1230,0.04919999999999991,5.000049991798719,0.19675286602012537,0.193717676031266,0
1231,0.04923999999999995,5.000049991798719,0.19116343770767452,0.18817111033807393,0
1232,0.04927999999999999,5.000378781950543,0.19017706800905274,0.187227704045918,0
1233,0.04932000000000003,4.99972120164681,0.19445133671082937,0.19154503663242217,0
1234,0.04936000000000007,4.99972120164681,0.19478012661180016,0.19191699058637499,0
1235,0.04940000000000011,5.000049991798719,0.19938318523788956,0.19656331312263348,0
1236,0.04943999999999993,5.000049991798719,0.20004076504351986,0.19726425638349454,0
1237,0.04947999999999997,4.99972120164681,0.20858930255994138,0.20585625658702647,0
1238,0.04952000000000001,5.000049991798719,0.217137840156473,0.2144483557883113,0
1239,0.04956000000000005,4.99972120164681,0.2187817897034312,0.2161359655423758,0
1240,0.04960000000000009,5.000049991798719,0.2204257392533413,0.2178236735854045,0
1241,0.049639999999999906,5.000049991798719,0.22371363836201,0.22115542915581393,0
1242,0.049679999999999946,5.000049991798719,0.2289742769603899,0.22646002186611963,0
1243,0.049719999999999986,5.000378781950543,0.2421258735879729,0.2396556699363314,0
1244,0.049760000000000026,4.99972120164681,0.2519895711816465,0.24956351598281185,0
1245,0.049800000000000066,5.000049991798719,0.2552774704028893,0.2528956603454739,0
1246,0.049840000000000106,5.000049991798719,0.2631684285813877,0.2608309600313993,0
1247,0.049879999999999924,4.999392411494816,0.26382600843261955,0.2615329774324241,0
1248,0.049919999999999964,5.000378781950543,0.27237454654087584,0.27012604880816243,0
1249,0.049960000000000004,5.000378781950543,0.2799367149326714,0.2777328458594188,0
1250,0.050000000000000044,4.999392411494816,0.2865125135838949,0.28435336823533963,0
1251,0.050040000000000084,4.99972120164681,0.29341710221727124,0.2913027753308777,0
1252,0.0500799999999999,5.000707572102282,0.3036095902924523,0.3015401762768849,0
1253,0.05011999999999994,5.001036362253937,0.3105141790510714,0.30848977198516836,0
1254,0.05015999999999998,4.99972120164681,0.3141308684209285,0.3121515620526776,0
1255,0.05020000000000002,5.000049991798719,0.3239945667724302,0.3220604545179466,0
1256,0.05024000000000006,5.000049991798719,0.32859762603814585,0.3267088009806531,0
1257,0.0502800000000001,5.000378781950543,0.3387901144912822,0.3369466693800951,0
1258,0.05031999999999992,5.000049991798719,0.34635228341379437,0.3445543106633039,0
1259,0.05035999999999996,4.99972120164681,0.3532568724820551,0.35150446417071546,0
1260,0.0504,5.000049991798719,0.36772363069037395,0.3660168785596908,0
1261,0.05044000000000004,5.000049991798719,0.3766009596981261,0.37493995515164724,0
1262,0.05048000000000008,5.000049991798719,0.3923828781344353,0.3907677122367442,0
1263,0.0505199999999999,5.000378781950543,0.4055344770262727,0.4039652405019839,0
1264,0.05055999999999994,5.000378781950543,0.420658815969709,0.41913559920246496,0
1265,0.05059999999999998,5.000707572102282,0.434467995207428,0.4329908882388996,0
1266,0.05064000000000002,4.999392411494816,0.4512362845400137,0.4498053770689014,0
1267,0.05068000000000006,4.999392411494816,0.4768819040630457,0.4754972854440838,0
1268,0.0507200000000001,5.000378781950543,0.4962805141355612,0.4949422733785231,0
1269,0.050759999999999916,5.000707572102282,0.5153503345675431,0.5140585603362484,0
1270,0.050799999999999956,4.99972120164681,0.5258716149579606,0.5246263955692853,0
1271,0.050839999999999996,5.000049991798719,0.5452702259594513,0.5440716493823394,0
1272,0.050880000000000036,5.000378781950543,0.5557915066545638,0.5546396605090425,0
1273,0.050920000000000076,5.001036362253937,0.5646688373237414,0.5635638088799362,0
1274,0.050960000000000116,4.99972120164681,0.5738749580973176,0.5728168342744707,0
1275,0.050999999999999934,5.000707572102282,0.5824234988879574,0.5814123662534486,0
1276,0.051039999999999974,5.000049991798719,0.5843962390802758,0.583432183848645,0
1277,0.051080000000000014,4.99972120164681,0.5794643886064096,0.5785474966383828,0
1278,0.051120000000000054,4.99972120164681,0.5732173780393803,0.5723477348408977,0
1279,0.051160000000000094,5.000378781950543,0.5640112572715843,0.5631889479928296,0
1280,0.05119999999999991,4.99972120164681,0.5488869161863815,0.5481120256208125,0
1281,0.05123999999999995,4.999392411494816,0.5396807956335524,0.5389534082169339,0
1282,0.05127999999999999,4.99972120164681,0.5212685547738902,0.5205887545833294,0
1283,0.05132000000000003,4.999392411494816,0.501212364213108,0.5005802349660935,0
1284,0.05136000000000007,4.999063621342738,0.4818137540462445,0.481229379099688,0
1285,0.05140000000000011,5.000707572102282,0.4676757841589331,0.4671392465082128,0
1286,0.05143999999999993,4.999063621342738,0.4443316947806391,0.4438430770586462,0
1287,0.05147999999999997,4.999392411494816,0.42131639592903775,0.420875780405225,0
1288,0.05152000000000001,4.99972120164681,0.4068496369251645,0.40645710550459796,0
1289,0.05156000000000005,4.99972120164681,0.3923828781344353,0.39203851235684783,0
1290,0.05160000000000009,4.99972120164681,0.3785736994886627,0.3782775805275101,0
1291,0.05163999999999991,5.001036362253937,0.35621598209791566,0.3559681907594347,0
1292,0.05167999999999995,5.000378781950543,0.3470098633229188,0.3468104800451879,0
1293,0.05171999999999999,5.000049991798719,0.33714616473342157,0.3369952695854237,0
1294,0.05176000000000003,5.000049991798719,0.326296096402507,0.32619376908319425,0
1295,0.05180000000000007,5.000378781950543,0.3223506170400691,0.3222969368774305,0
1296,0.05184000000000011,4.99972120164681,0.32169303714792036,0.3216880830980527,0
1297,0.051879999999999926,5.000378781950543,0.32169303714792036,0.3217368877941009,0
1298,0.051919999999999966,5.000049991798719,0.32530972656036417,0.3254024601121258,0
1299,0.051960000000000006,5.000049991798719,0.3239945667724302,0.32413626106463933,0
1300,0.052000000000000046,4.999392411494816,0.33484463507716533,0.3350353675691022,0
1301,0.052040000000000086,5.000707572102282,0.3424068039685155,0.34264665174295683,0
1302,0.052079999999999904,4.99972120164681,0.3476674432324937,0.34795648299479764,0
1303,0.052119999999999944,5.000378781950543,0.3532568724820551,0.3535951805592493,0
1304,0.052159999999999984,5.000049991798719,0.35950388168175657,0.3598915340216288,0
1305,0.052200000000000024,4.99972120164681,0.3618054113971163,0.36224248356730815,0
1306,0.052240000000000064,4.99972120164681,0.3611478314778819,0.3616343986649851,0
1307,0.052280000000000104,5.000049991798719,0.3611478314778819,0.3616839684865367,0
1308,0.05231999999999992,4.999392411494816,0.36213420135690155,0.362719982608898,0
1309,0.05235999999999996,4.999392411494816,0.36509331100000664,0.36572881053338835,0
1310,0.0524,5.000049991798719,0.3618054113971163,0.36249070286528745,0
1311,0.05244000000000004,4.99972120164681,0.3565447720557949,0.3572799287266299,0
1312,0.05248000000000008,5.000378781950543,0.3502977628752965,0.3510828576302527,0
1313,0.0525199999999999,5.000049991798719,0.34569470350512066,0.3465298088383533,0
1314,0.05255999999999994,4.99972120164681,0.33484463507716533,0.33572982309464494,0
1315,0.05259999999999998,4.999392411494816,0.33385826522618106,0.33479360764481264,0
1316,0.05264000000000002,4.999063621342738,0.32333698687914486,0.32432255502589086,0
1317,0.05268000000000006,4.99972120164681,0.31939150752898215,0.3204273723399875,0
1318,0.0527200000000001,4.998734831190575,0.31150054887784484,0.31258678089756464,0
1319,0.05275999999999992,5.000707572102282,0.30295201041330994,0.3040886797936395,0
1320,0.05279999999999996,4.998077250885994,0.2924307324093977,0.29361790890880524,0
1321,0.05284,5.000707572102282,0.2769776055546842,0.27821535853734614,0
1322,0.05288000000000004,4.999392411494816,0.2713881767551542,0.27267657519009303,0
1323,0.05292000000000008,4.999392411494816,0.2585653696357846,0.2599044820960093,0
1324,0.052959999999999896,4.998406041038327,0.2595517394079233,0.26094163406957244,0
1325,0.052999999999999936,5.000378781950543,0.24837288205175478,0.24981362669324253,0
1326,0.053039999999999976,4.998406041038327,0.24113950383439497,0.24263116583556066,0
1327,0.053080000000000016,5.000378781950543,0.23423491558888598,0.23577756193014687,0
1328,0.053120000000000056,5.002351522859708,0.2256863778328696,0.2272800750943763,0
1329,0.053160000000000096,4.997419670581074,0.20760293284241504,0.20924774720321038,0
1330,0.053199999999999914,5.000378781950543,0.20628777322070627,0.20798377045788646,0
1331,0.053239999999999954,5.000378781950543,0.1970816559219295,0.19882890140980888,0
1332,0.053279999999999994,4.999392411494816,0.19083464780801468,0.1926332065172931,0
1333,0.053320000000000034,4.999392411494816,0.18491642963454402,0.18676636613147674,0
1334,0.053360000000000074,4.999392411494816,0.17998458118622715,0.18188595963179718,0
1335,0.053400000000000114,4.99972120164681,0.17472394287104745,0.17667682702014004,0
1336,0.05343999999999993,4.99972120164681,0.16354508655331312,0.16554953975389353,0
1337,0.05347999999999997,5.000049991798719,0.15565412923633737,0.15771021442863195,0
1338,0.05352000000000001,5.000378781950543,0.15105107083354244,0.15315885054922246,0
1339,0.05356000000000005,4.999392411494816,0.14677680233788687,0.14893633869925538,0
1340,0.05360000000000009,5.000378781950543,0.13658431600783633,0.13879567072701815,0
1341,0.05363999999999991,4.999392411494816,0.13231004758158987,0.13457328195972543,0
1342,0.05367999999999995,5.000378781950543,0.1257342500429348,0.1280494249693768,0
1343,0.05371999999999999,4.99972120164681,0.12178877154316266,0.12415594749467596,0
1344,0.05376000000000003,5.000049991798719,0.1168569234431935,0.1192761604831575,0
1345,0.05380000000000007,5.000378781950543,0.10765080706363755,0.11012216484125179,0
1346,0.05384000000000011,5.000378781950543,0.10600685772026662,0.10853039546975918,0
1347,0.05387999999999993,5.000049991798719,0.09778711104951865,0.10036288758935719,0
1348,0.05391999999999997,5.000049991798719,0.095485581995499,0.09811365572760389,0
1349,0.05396000000000001,4.99972120164681,0.09219768335738154,0.09487811226634224,0
1350,0.05400000000000005,5.000049991798719,0.09186889349424851,0.09460173514654313,0
1351,0.05404000000000009,5.000378781950543,0.08595067597897872,0.08873598752219697,0
1352,0.054079999999999906,4.99972120164681,0.08989615431804343,0.09273399248011288,0
1353,0.054119999999999946,5.000378781950543,0.08463551653658133,0.08752593762499733,0
1354,0.054159999999999986,5.000378781950543,0.08200519765772811,0.08494825755878727,0
1355,0.054200000000000026,5.000049991798719,0.08200519765772811,0.08500095183576473,0
1356,0.054240000000000066,4.99972120164681,0.08299156723636938,0.08604007073299541,0
1357,0.054280000000000106,5.000049991798719,0.08825220500793643,0.09135351244128465,0
1358,0.054319999999999924,5.000378781950543,0.08693704556207577,0.0900912111260464,0
1359,0.054359999999999964,5.000049991798719,0.08759462528475882,0.09080170274826926,0
1360,0.054400000000000004,5.000378781950543,0.08529309625753255,0.08855313896377054,0
1361,0.054440000000000044,5.000049991798719,0.09055373404295111,0.09386679490863176,0
1362,0.054480000000000084,4.99972120164681,0.095485581995499,0.09885171351012506,0
1363,0.0545199999999999,4.99972120164681,0.10008864010957542,0.10350789433470034,0
1364,0.05455999999999994,4.99972120164681,0.09975985024348359,0.10323227881197852,0
1365,0.05459999999999998,5.000378781950543,0.10173258944188096,0.1052582435572052,0
1366,0.05464000000000002,4.999392411494816,0.10239016917566456,0.1059690996111394,0
1367,0.05468000000000006,5.000378781950543,0.10271895904274086,0.1063512161408266,0
1368,0.0547200000000001,5.000049991798719,0.10469169824778124,0.10837733191935742,0
1369,0.05475999999999992,4.999392411494816,0.10929475641007817,0.1130338161337271,0
1370,0.05479999999999996,5.000378781950543,0.11521297408265467,0.11900550890394812,0
1371,0.05484,5.000049991798719,0.11093870575958677,0.1147847642903762,0
1372,0.05488000000000004,5.000049991798719,0.11882966267987906,0.12272929309758834,0
1373,0.05492000000000008,5.000049991798719,0.12639182979460575,0.13034507984152818,0
1374,0.0549599999999999,5.000707572102282,0.12967972856027796,0.13368664554287668,0
1375,0.05499999999999994,4.99972120164681,0.13231004758158987,0.136370678369802,0
1376,0.05503999999999998,4.999392411494816,0.13954342493035102,0.1436578159568951,0
1377,0.05508000000000002,5.000707572102282,0.14513285292192996,0.14930105018161755,0
1378,0.05512000000000006,4.999392411494816,0.1474343821051176,0.15165643115416835,0
1379,0.0551600000000001,5.000049991798719,0.15302381014612548,0.1572997561014861,0
1380,0.055199999999999916,4.99972120164681,0.15368138991795355,0.15801127745662033,0
1381,0.055239999999999956,4.999392411494816,0.15828444833427735,0.16266832169262205,0
1382,0.055279999999999996,4.99972120164681,0.1684769349116572,0.17291483788475626,0
1383,0.055320000000000036,5.000049991798719,0.1740663630838078,0.17855833902477516,0
1384,0.055360000000000076,4.99972120164681,0.17702547213016373,0.1815715639494874,0
1385,0.055400000000000116,5.000378781950543,0.17834063170943854,0.18294088187432098,0
1386,0.055439999999999934,5.000049991798719,0.18458763973715245,0.1892420902708546,0
1387,0.055479999999999974,5.000049991798719,0.18458763973715245,0.18929633221834158,0
1388,0.055520000000000014,4.999392411494816,0.18064216097778074,0.18540513653988175,0
1389,0.055560000000000054,4.999392411494816,0.18425884983988045,0.18907614917043053,0
1390,0.055600000000000094,5.000378781950543,0.18261490035531364,0.18748656369532063,0
1391,0.05563999999999991,4.99972120164681,0.18294369025198784,0.18786975739529205,0
1392,0.05567999999999995,4.99972120164681,0.18327248014878164,0.18825299044142177,0
1393,0.05571999999999999,5.000378781950543,0.17834063170943854,0.1833756240490211,0
1394,0.05576000000000003,4.99972120164681,0.17373757319036792,0.17882708602543998,0
1395,0.05580000000000007,4.99972120164681,0.1714360439396491,0.17658011526907483,0
1396,0.05584000000000011,5.000378781950543,0.16814814502025893,0.17334681239260014,0
1397,0.05587999999999993,5.000049991798719,0.17176483383224878,0.177018134345149,0
