,seconds,Trig,EMG_amplitude,EMG_amplitude_filter,peaks
0,0.0,5.000378781950543,-0.09225341005923197,-0.06986585819484199,0
1,4.0000000000040004e-05,5.000049991798719,-0.09126704068339796,-0.06893968478586118,0
2,8.000000000008001e-05,5.000707572102282,-0.09619888755075014,-0.0739316795302564,0
3,0.00011999999999989797,5.000049991798719,-0.10211710375253198,-0.07990999530856563,0
4,0.00015999999999993797,5.000049991798719,-0.10704895055476103,-0.08490189317659114,0
5,0.00019999999999997797,5.000707572102282,-0.10967926883715166,-0.08759221380432408,0
6,0.00024000000000001798,5.000049991798719,-0.11296716667825839,-0.09094006506109026,0
7,0.000280000000000058,5.000707572102282,-0.11461111559385707,-0.09264391825393312,0
8,0.000320000000000098,5.000049991798719,-0.12052933166263081,-0.09862198925330165,0
9,0.00035999999999991594,5.000378781950543,-0.12480359879672413,-0.10295606176360655,0
10,0.00039999999999995595,5.000378781950543,-0.12546117835382642,-0.10367339693530542,0
11,0.00043999999999999595,5.000707572102282,-0.11954296232081356,-0.09781488654854655,0
12,0.00048000000000003595,5.000378781950543,-0.11691264407014172,-0.09524422376956439,0
13,0.000520000000000076,5.000378781950543,-0.10967926883715166,-0.08807045362798582,0
14,0.0005599999999998939,5.000378781950543,-0.11592627472395621,-0.09437701402071971,0
15,0.0005999999999999339,5.000707572102282,-0.11724143385193893,-0.09575167686445765,0
16,0.0006399999999999739,5.000049991798719,-0.11921417253994292,-0.09778386827386457,0
17,0.0006800000000000139,5.000049991798719,-0.12250207034268835,-0.10113116759999835,0
18,0.0007200000000000539,5.000049991798719,-0.12085812144297166,-0.09954656882251078,0
19,0.0007600000000000939,5.000049991798719,-0.11493990537658023,-0.09368765127456409,0
20,0.0007999999999999119,5.000378781950543,-0.10902168926734575,-0.08782868187788617,0
21,0.0008399999999999519,4.99972120164681,-0.10836410969701198,-0.08723029701264044,0
22,0.0008799999999999919,5.000378781950543,-0.10310347311534969,-0.08202880292754261,0
23,0.0009200000000000319,5.000049991798719,-0.10376105268990284,-0.08274547258960868,0
24,0.0009600000000000719,5.000378781950543,-0.09850041607873007,-0.0775438734568987,0
25,0.001000000000000112,5.000707572102282,-0.10211710375253198,-0.08121954580064568,0
26,0.0010399999999999299,5.000049991798719,-0.09784283649996468,-0.0770042102105712,0
27,0.0010799999999999699,5.000049991798719,-0.09323977943388458,-0.07246003160113193,0
28,0.0011200000000000099,5.000049991798719,-0.09028067130638286,-0.06955974852655573,0
29,0.0011600000000000499,5.000049991798719,-0.08699277337447438,-0.06633062204653256,0
30,0.0012000000000000899,5.000707572102282,-0.08534882440360501,-0.06474539072972366,0
31,0.0012399999999999078,5.000049991798719,-0.08370487542946127,-0.06316010541557307,0
32,0.0012799999999999478,4.99972120164681,-0.0820609264520449,-0.061574765908384115,0
33,0.0013199999999999878,5.000378781950543,-0.08271850604340404,-0.06229090058505251,0
34,0.0013600000000000279,5.000049991798719,-0.08008818767482774,-0.05971908272226262,0
35,0.0014000000000000679,5.000049991798719,-0.07548513050968754,-0.05517447128933097,0
36,0.0014400000000001079,4.99972120164681,-0.0715396529191989,-0.0512873844639694,0
37,0.0014799999999999258,5.000049991798719,-0.07186844271912378,-0.051674509868989194,0
38,0.0015199999999999658,5.000049991798719,-0.06693659570656622,-0.04680094310909845,0
39,0.0015600000000000058,4.99972120164681,-0.0626623282719858,-0.042584900382917214,0
40,0.0016000000000000458,5.000049991798719,-0.059374430230432304,-0.03935517131421391,0
41,0.0016400000000000858,4.99972120164681,-0.054113793336938706,-0.03415264746730015,0
42,0.0016799999999999038,4.999063621342738,-0.05312742391571186,-0.03322433497622297,0
43,0.0017199999999999438,5.000378781950543,-0.05444258314375501,-0.034597494828389246,0
44,0.0017599999999999838,4.99972120164681,-0.050168315645034,-0.030381171458733473,0
45,0.0018000000000000238,5.000049991798719,-0.047537997173404054,-0.0278087404326464,0
46,0.0018400000000000638,4.99972120164681,-0.046551627744407784,-0.026880201577774623,0
47,0.0018800000000001038,5.000707572102282,-0.031756086169998185,-0.012142433518745395,0
48,0.0019199999999999218,4.99972120164681,-0.027481818555480722,-0.00792588217411036,0
49,0.0019599999999999618,5.001036362253937,-0.021563601822605624,-0.0020653242794396315,0
50,0.0020000000000000018,4.99972120164681,-0.024851500012672237,-0.005410823690427717,0
51,0.0020400000000000418,5.000049991798719,-0.03044092690630805,-0.011057794002674363,0
52,0.002080000000000082,5.000707572102282,-0.028796977823800904,-0.009471330352018408,0
53,0.0021199999999998997,4.99972120164681,-0.02781060837275358,-0.008542388162194124,0
54,0.0021599999999999397,5.000378781950543,-0.027481818555480722,-0.008270967252229845,0
55,0.0021999999999999797,4.99972120164681,-0.026824238920549456,-0.007670697987990291,0
56,0.0022400000000000198,5.000378781950543,-0.024193920375685754,-0.005097631095084508,0
57,0.0022800000000000598,4.99972120164681,-0.01630296469182467,0.002736131837082191,0
58,0.0023200000000000998,4.99972120164681,-0.01630296469182467,0.0026789981665923113,0
59,0.0023599999999999177,5.000049991798719,-0.0166317545134594,0.0022931339360226927,0
60,0.0023999999999999577,4.99972120164681,-0.01860449344057817,0.00026338004128250575,0
61,0.0024399999999999977,5.000049991798719,-0.021563601822605624,-0.0027526836878879538,0
62,0.0024800000000000377,5.000049991798719,-0.01991965272276132,-0.001165630136138622,0
63,0.0025200000000000777,5.000049991798719,-0.019590862902407788,-0.0008936758868593117,0
64,0.0025599999999998957,5.000049991798719,-0.01696054433496612,0.0016798672639029566,0
65,0.0025999999999999357,5.000049991798719,-0.020248442542986647,-0.0016647460296283362,0
66,0.0026399999999999757,5.000378781950543,-0.014330225759327644,0.0041968161758604156,0
67,0.0026800000000000157,5.000378781950543,-0.012357486822223915,0.006112961217702828,0
68,0.0027200000000000557,5.000378781950543,-0.01564538504817102,0.0027685299543667025,0
69,0.0027600000000000957,4.99972120164681,-0.013343856291351444,0.005013586706026259,0
70,0.0027999999999999137,5.000049991798719,-0.006110480157705198,0.01219055204049007,0
71,0.0028399999999999537,5.000707572102282,-0.006768059808773,0.011476622969356226,0
72,0.0028799999999999937,4.99972120164681,-0.004137741201439435,0.014050653708267719,0
73,0.0029200000000000337,4.99972120164681,0.0014516858662357995,0.01958385463107963,0
74,0.0029600000000000737,5.000049991798719,0.010986590948902406,0.029062595463742263,0
75,0.0029999999999998916,5.000378781950543,0.012301750279031881,0.03032165260941197,0
76,0.0030399999999999316,4.999392411494816,0.01789117745471111,0.035855039836243316,0
77,0.0030799999999999716,5.000049991798719,0.025124553854007567,0.04303243869175269,0
78,0.0031200000000000117,5.000378781950543,0.029727611594485073,0.04757958146233243,0
79,0.0031600000000000517,5.000378781950543,0.03433066935967702,0.05212678699972248,0
80,0.0032000000000000917,4.99972120164681,0.037947357621069405,0.05568768594299203,0
81,0.0032399999999999096,4.99972120164681,0.04682468341804723,0.06450928549848445,0
82,0.0032799999999999496,4.99972120164681,0.054058060060948765,0.07168699914287001,0
83,0.0033199999999999896,4.99972120164681,0.05603079915588792,0.07360413864796705,0
84,0.0033600000000000296,5.000378781950543,0.06030506721035353,0.07782287068633954,0
85,0.0034000000000000696,5.000049991798719,0.06326417587580183,0.08072650707388815,0
86,0.0034400000000001096,5.000049991798719,0.06622328455134852,0.0836302073735407,0
87,0.0034799999999999276,4.999392411494816,0.07247029178839723,0.08982187029987923,0
88,0.0035199999999999676,5.000049991798719,0.07214150193269635,0.08943780036119522,0
89,0.0035600000000000076,5.000049991798719,0.0731278715001718,0.09036895423532106,0
90,0.0036000000000000476,5.000049991798719,0.0737854512124434,0.09097138280514483,0
91,0.0036400000000000876,5.000049991798719,0.07542940049529606,0.09256024565707995,0
92,0.0036799999999999056,5.000378781950543,0.07805971935431567,0.0951355429566998,0
93,0.0037199999999999456,4.99972120164681,0.07411424106876553,0.0911351081426128,0
94,0.0037599999999999856,5.000378781950543,0.0757581903522391,0.0927241660871133,0
95,0.0038000000000000256,5.000049991798719,0.07542940049529606,0.0923405502388165,0
96,0.0038400000000000656,5.000049991798719,0.07510061063847716,0.09195699989567205,0
97,0.0038800000000001056,5.000378781950543,0.06983997294627126,0.08664166737892935,0
98,0.0039199999999999235,4.99972120164681,0.0737854512124434,0.09053251663846437,0
99,0.0039599999999999635,5.000049991798719,0.0714839222216675,0.08817642461441079,0
100,0.0040000000000000036,5.000049991798719,0.0731278715001718,0.08976587698780428,0
101,0.0040400000000000436,5.000049991798719,0.0672096541121064,0.08379322897694852,0
102,0.0040800000000000836,4.99972120164681,0.06457933528590981,0.08110854596378052,0
103,0.0041199999999999015,5.000378781950543,0.07082634251113593,0.08730125559069643,0
104,0.0041599999999999415,4.99972120164681,0.06425054543319586,0.08067122765529186,0
105,0.0041999999999999815,4.99972120164681,0.059647487508292976,0.0760140057652956,0
106,0.0042400000000000215,5.000049991798719,0.05997627735926084,0.07628869869440622,0
107,0.0042800000000000615,5.001036362253937,0.0626065961714958,0.07886498777822312,0
108,0.0043200000000001015,5.000707572102282,0.060962646912913254,0.07716707613420165,0
109,0.0043599999999999195,5.000049991798719,0.05570200930641887,0.071852543634123,0
110,0.0043999999999999595,5.000049991798719,0.05701716870504489,0.07311387577922926,0
111,0.0044399999999999995,5.000049991798719,0.05800353825532628,0.07404648586359847,0
112,0.0044800000000000395,5.000049991798719,0.050112581884580176,0.06610183796142255,0
113,0.0045200000000000795,5.000049991798719,0.05044137173192248,0.06637700435802285,0
114,0.0045599999999998975,4.99972120164681,0.04748226311035131,0.06336434051193214,0
115,0.0045999999999999375,5.000378781950543,0.043865574808886185,0.0596941653570326,0
116,0.0046399999999999775,4.99972120164681,0.045509524034943585,0.061284696244929854,0
117,0.0046800000000000175,5.000049991798719,0.045180734189481195,0.06090255672009607,0
118,0.0047200000000000575,5.001036362253937,0.04255041543029908,0.05821895708316998,0
119,0.0047600000000000975,4.99972120164681,0.043865574808886185,0.05948090452780212,0
120,0.0047999999999999154,5.000378781950543,0.03959130683582415,0.055153493706057544,0
121,0.0048399999999999554,4.99972120164681,0.04024888652260587,0.055757999770233026,0
122,0.0048799999999999955,5.000378781950543,0.03663219825152894,0.05208830724274938,0
123,0.0049200000000000355,4.99972120164681,0.03433066935967702,0.04973384360013145,0
124,0.0049600000000000755,4.99972120164681,0.037289777936047624,0.052640087070134706,0
125,0.004999999999999893,5.000049991798719,0.037289777936047624,0.05258729174623968,0
126,0.005039999999999933,5.000049991798719,0.033673089677423634,0.048917878083581307,0
127,0.005079999999999973,5.000049991798719,0.03334429983648583,0.04853643289517144,0
128,0.005120000000000013,5.000378781950543,0.033673089677423634,0.04881263758121341,0
129,0.005160000000000053,4.999392411494816,0.0313715607935042,0.04645859387029933,0
130,0.0052000000000000934,5.000378781950543,0.033015509995673945,0.04805009870801043,0
131,0.005239999999999911,4.99972120164681,0.029727611594485073,0.04470982653884243,0
132,0.005279999999999951,5.000378781950543,0.03202914047399413,0.04695905238010297,0
133,0.005319999999999991,4.99972120164681,0.028083662398618273,0.04296134212876673,0
134,0.005360000000000031,5.000049991798719,0.030713981113518377,0.04553949966185741,0
135,0.005400000000000071,5.001036362253937,0.023809394504130166,0.038582822995977796,0
136,0.005440000000000111,4.999392411494816,0.028741242076586612,0.04346265176773103,0
137,0.005479999999999929,5.001693942556992,0.028083662398618273,0.04275312467462001,0
138,0.005519999999999969,5.000049991798719,0.027097292882612076,0.041714879258105075,0
139,0.005560000000000009,5.001036362253937,0.025782133529704057,0.04034791564769572,0
140,0.005600000000000049,4.998077250885994,0.030056401434036775,0.04457045106520692,0
141,0.005640000000000089,4.999392411494816,0.025453343691792682,0.039915732733791356,0
142,0.005679999999999907,5.001365152405508,0.02676850304419573,0.041179303520940014,0
143,0.005719999999999947,5.001036362253937,0.023809394504130166,0.03816867856509995,0
144,0.005759999999999987,5.000378781950543,0.026110923367741706,0.04041876328727444,0
145,0.005800000000000027,4.99972120164681,0.029398821755059465,0.04365528993164393,0
146,0.005840000000000067,4.99972120164681,0.024795764016348754,0.03900093297191776,0
147,0.005880000000000107,4.999392411494816,0.030056401434036775,0.04421034381325881,0
148,0.005919999999999925,5.000049991798719,0.02676850304419573,0.04087129161376571,0
149,0.005959999999999965,5.000049991798719,0.029070031915759978,0.04312173956368901,0
150,0.006000000000000005,5.000378781950543,0.023809394504130166,0.03781009423903432,0
151,0.006040000000000045,4.999392411494816,0.029070031915759978,0.043019796866148124,0
152,0.006080000000000085,5.000378781950543,0.02676850304419573,0.04066740645775643,0
153,0.006119999999999903,4.998077250885994,0.030385191273714543,0.04423330651660198,0
154,0.006159999999999943,5.000049991798719,0.028741242076586612,0.04253864263270567,0
155,0.006199999999999983,5.000378781950543,0.029727611594485073,0.043474371064775495,0
156,0.006240000000000023,4.99972120164681,0.029070031915759978,0.042766224017479634,0
157,0.006280000000000063,5.000049991798719,0.029727611594485073,0.04337331016049221,0
158,0.006320000000000103,5.000378781950543,0.03202914047399413,0.045624419452028775,0
159,0.006359999999999921,5.000378781950543,0.031042770953448276,0.044587704405412695,0
160,0.006399999999999961,5.000049991798719,0.027754872559823354,0.04124953466106164,0
161,0.006440000000000001,5.000049991798719,0.027097292882612076,0.040541757921188894,0
162,0.006480000000000041,5.000378781950543,0.029727611594485073,0.04312195397046348,0
163,0.006520000000000081,5.000049991798719,0.029398821755059465,0.04274311597977784,0
164,0.006559999999999899,4.99972120164681,0.0313715607935042,0.04466588148885234,0
165,0.006599999999999939,5.000378781950543,0.033015509995673945,0.04625993189336831,0
166,0.006639999999999979,5.000049991798719,0.030056401434036775,0.04325099937489495,0
167,0.006680000000000019,5.000049991798719,0.033015509995673945,0.04616035892888826,0
168,0.006720000000000059,5.000049991798719,0.027754872559823354,0.04085004754223372,0
169,0.006760000000000099,5.000378781950543,0.028412452237539368,0.04145802843290528,0
170,0.006799999999999917,5.000378781950543,0.031700350633686175,0.044696403311957955,0
171,0.006839999999999957,5.000378781950543,0.034988249042434,0.0479348535790233,0
172,0.006879999999999997,5.000378781950543,0.029398821755059465,0.04229605363010909,0
173,0.006920000000000037,5.000707572102282,0.03268672015498804,0.04553465495264099,0
174,0.006960000000000077,5.000049991798719,0.033673089677423634,0.046471803085091294,0
175,0.006999999999999895,5.000378781950543,0.034988249042434,0.04773781685006355,0
176,0.007039999999999935,4.999063621342738,0.0323579303144281,0.04505842841376911,0
177,0.007079999999999975,4.99972120164681,0.03465945920099257,0.04731096358486285,0
178,0.007120000000000015,4.99972120164681,0.03564582872569445,0.04824841548724526,0
179,0.007160000000000055,5.000049991798719,0.03334429983648583,0.04589804516846632,0
180,0.007200000000000095,5.000378781950543,0.0323579303144281,0.044862910508449066,0
181,0.007239999999999913,5.000049991798719,0.03202914047399413,0.04448543191979114,0
182,0.007279999999999953,5.000378781950543,0.030056401434036775,0.04246408061873262,0
183,0.007319999999999993,5.000049991798719,0.031700350633686175,0.04405949414105268,0
184,0.007360000000000033,4.99972120164681,0.0392625169926218,0.05157320150234096,0
185,0.007400000000000073,5.000378781950543,0.037618567778495635,0.04988087006542015,0
186,0.007440000000000113,5.000049991798719,0.03663219825152894,0.0488461951849421,0
187,0.007479999999999931,4.999392411494816,0.03465945920099257,0.04682522774386748,0
188,0.007519999999999971,4.99972120164681,0.03696098809372539,0.049078605301983616,0
189,0.007560000000000011,4.99972120164681,0.03696098809372539,0.04903053111549492,0
190,0.007600000000000051,4.99972120164681,0.03696098809372539,0.04898253416859793,0
191,0.007640000000000091,5.000049991798719,0.03465945920099257,0.04663308565928029,0
192,0.007679999999999909,4.99972120164681,0.03827614746376892,0.05020193172576055,0
193,0.007719999999999949,5.000378781950543,0.04123525605372079,0.05311327562893718,0
194,0.007759999999999989,5.000378781950543,0.037947357621069405,0.04977769010751854,0
195,0.007800000000000029,5.000378781950543,0.03268672015498804,0.04446944323841949,0
196,0.00784000000000007,5.000049991798719,0.034988249042434,0.04672344049559286,0
197,0.00788000000000011,4.99972120164681,0.03202914047399413,0.04371687815587444,0
198,0.007919999999999927,4.99972120164681,0.0323579303144281,0.04399829216952567,0
199,0.007959999999999967,5.000378781950543,0.03696098809372539,0.048554052151290154,0
200,0.008000000000000007,5.000049991798719,0.03893372714954513,0.05047957152283296,0
201,0.008040000000000047,5.000049991798719,0.037947357621069405,0.04944606050659353,0
202,0.008080000000000087,4.99972120164681,0.03597461856751347,0.047426258244295416,0
203,0.008119999999999905,5.000049991798719,0.03433066935967702,0.04573532418849709,0
204,0.008159999999999945,5.000049991798719,0.036303408409458296,0.047661156832105527,0
205,0.008199999999999985,5.000378781950543,0.037947357621069405,0.049258278159591204,0
206,0.008240000000000025,4.99972120164681,0.03465945920099257,0.04592363045694384,0
207,0.008280000000000065,5.000049991798719,0.03400187951848738,0.045219380172179253,0
208,0.008320000000000105,4.99972120164681,0.03663219825152894,0.04780310706127716,0
209,0.008359999999999923,5.000049991798719,0.03564582872569445,0.04677022452706729,0
210,0.008399999999999963,5.000378781950543,0.03400187951848738,0.04507984122355316,0
211,0.008440000000000003,5.000049991798719,0.034988249042434,0.04601985563900822,0
212,0.008480000000000043,4.99972120164681,0.03564582872569445,0.0466311592765865,0
213,0.008520000000000083,5.000378781950543,0.03465945920099257,0.045598592843252045,0
214,0.008559999999999901,5.000049991798719,0.0353170388840013,0.04621005482816392,0
215,0.008599999999999941,5.000378781950543,0.034988249042434,0.04583522657176717,0
216,0.008639999999999981,5.000049991798719,0.036303408409458296,0.047104426879206227,0
217,0.008680000000000021,5.000378781950543,0.04189283574175878,0.05264797457838731,0
218,0.008720000000000061,5.000378781950543,0.039920096679152195,0.05062943537959317,0
219,0.008760000000000101,5.000049991798719,0.03893372714954513,0.049597345280440464,0
220,0.008799999999999919,4.99972120164681,0.030713981113518377,0.041331958310463796,0
221,0.008839999999999959,5.001036362253937,0.023809394504130166,0.03438181047091855,0
222,0.008879999999999999,5.000378781950543,0.025124553854007567,0.0356514883618721,0
223,0.008920000000000039,5.000049991798719,0.029398821755059465,0.0398803546419165,0
224,0.008960000000000079,5.000707572102282,0.03465945920099257,0.04509567037068432,0
225,0.008999999999999897,5.000378781950543,0.033015509995673945,0.04340647941721088,0
226,0.009039999999999937,5.000378781950543,0.03597461856751347,0.046320426274316415,0
227,0.009079999999999977,4.99972120164681,0.03696098809372539,0.04726171418286739,0
228,0.009120000000000017,4.99972120164681,0.03597461856751347,0.04623034319896144,0
229,0.009160000000000057,5.000378781950543,0.031700350633686175,0.04191115402954239,0
230,0.009200000000000097,5.000378781950543,0.030385191273714543,0.04055115371745791,0
231,0.009239999999999915,5.000378781950543,0.030056401434036775,0.04017760326976391,0
232,0.009279999999999955,4.999392411494816,0.033015509995673945,0.043092031627340086,0
233,0.009319999999999995,5.000378781950543,0.031700350633686175,0.04173227252434585,0
234,0.009360000000000035,5.000378781950543,0.030056401434036775,0.04004380410508425,0
235,0.009400000000000075,5.000378781950543,0.031042770953448276,0.0409857349838578,0
236,0.009439999999999893,5.000049991798719,0.030056401434036775,0.03995500745960267,0
237,0.009479999999999933,4.99972120164681,0.033015509995673945,0.0428698387082506,0
238,0.009519999999999973,5.000378781950543,0.028741242076586612,0.038551374223328314,0
239,0.009560000000000013,5.000378781950543,0.03268672015498804,0.04245273653758872,0
240,0.009600000000000053,5.000378781950543,0.03202914047399413,0.04175112194792704,0
241,0.009640000000000093,4.99972120164681,0.030056401434036775,0.03973442890779394,0
242,0.009679999999999911,5.000378781950543,0.03433066935967702,0.04396482379400867,0
243,0.009719999999999951,4.99972120164681,0.03268672015498804,0.04227708256214191,0
244,0.009759999999999991,5.000049991798719,0.03268672015498804,0.042233371597948564,0
245,0.009800000000000031,4.99972120164681,0.030056401434036775,0.03955942302576425,0
246,0.009840000000000071,5.000378781950543,0.029727611594485073,0.039187084497154745,0
247,0.009880000000000111,5.000378781950543,0.029398821755059465,0.03881482717930061,0
248,0.009919999999999929,5.000378781950543,0.030385191273714543,0.03975781047784949,0
249,0.009959999999999969,5.000049991798719,0.027754872559823354,0.0370841868491064,0
250,0.010000000000000009,5.000049991798719,0.031700350633686175,0.04098644135954255,0
251,0.010040000000000049,4.99972120164681,0.0353170388840013,0.044559987443266086,0
252,0.010080000000000089,4.99972120164681,0.03564582872569445,0.044845716559851596,0
253,0.010119999999999907,5.000049991798719,0.036303408409458296,0.04546031700387958,0
254,0.010159999999999947,5.000378781950543,0.037947357621069405,0.04706136850425354,0
255,0.010199999999999987,5.000707572102282,0.028412452237539368,0.037483646980351115,0
256,0.010240000000000027,5.000049991798719,0.019863916466630674,0.028892376681540006,0
257,0.010280000000000067,5.000049991798719,0.018877546960101396,0.027863354300422805,0
258,0.010320000000000107,5.000378781950543,0.027097292882612076,0.03604052904174381,0
259,0.010359999999999925,5.000378781950543,0.027426082721154613,0.03632682943181806,0
260,0.010399999999999965,5.000049991798719,0.030056401434036775,0.038914740467515745,0
261,0.010440000000000005,5.000378781950543,0.029727611594485073,0.03854362475986532,0
262,0.010480000000000045,4.99972120164681,0.0323579303144281,0.041131699457836894,0
263,0.010520000000000085,5.000378781950543,0.033015509995673945,0.04174711699951974,0
264,0.010559999999999903,4.99972120164681,0.033015509995673945,0.041705036777886215,0
265,0.010599999999999943,4.99972120164681,0.0313715607935042,0.040019089306773344,0
266,0.010639999999999983,5.000049991798719,0.0313715607935042,0.03997717302452167,0
267,0.010680000000000023,4.999392411494816,0.031042770953448276,0.03960654892214703,0
268,0.010720000000000063,5.000049991798719,0.033015509995673945,0.04153753575446921,0
269,0.010760000000000103,5.000378781950543,0.0323579303144281,0.04083828594745832,0
270,0.01079999999999992,5.000378781950543,0.033673089677423634,0.04211185729979167,0
271,0.01083999999999996,4.99972120164681,0.029398821755059465,0.03779608351207413,0
272,0.01088,5.000378781950543,0.03202914047399413,0.04038497854041198,0
273,0.01092000000000004,4.99972120164681,0.033015509995673945,0.04133000657494143,0
274,0.01096000000000008,5.000049991798719,0.029070031915759978,0.03734326923925576,0
275,0.010999999999999899,4.99972120164681,0.027426082721154613,0.035658143047432096,0
276,0.011039999999999939,4.999392411494816,0.0313715607935042,0.039562526407534354,0
277,0.011079999999999979,5.000049991798719,0.029727611594485073,0.03787756480689955,0
278,0.011120000000000019,4.99972120164681,0.030385191273714543,0.03849421442004908,0
279,0.011160000000000059,5.000049991798719,0.03334429983648583,0.041412475276423985,0
280,0.011200000000000099,5.000049991798719,0.03564582872569445,0.043673238842311606,0
281,0.011239999999999917,5.000378781950543,0.03202914047399413,0.040015867673001866,0
282,0.011279999999999957,5.000049991798719,0.027754872559823354,0.035700999268814135,0
283,0.011319999999999997,5.000049991798719,0.03202914047399413,0.039934749141686335,0
284,0.011360000000000037,5.000378781950543,0.031042770953448276,0.03890794404893168,0
285,0.011400000000000077,5.000049991798719,0.033015509995673945,0.04084033000765556,0
286,0.011439999999999895,4.99972120164681,0.0313715607935042,0.0391561102295545,0
287,0.011479999999999935,5.000049991798719,0.03202914047399413,0.039773501859793635,0
288,0.011519999999999975,5.000049991798719,0.031042770953448276,0.03874702683203453,0
289,0.011560000000000015,4.99972120164681,0.031042770953448276,0.038707003884463256,0
290,0.011600000000000055,5.000049991798719,0.028083662398618273,0.03570795495755624,0
291,0.011640000000000095,5.000378781950543,0.030713981113518377,0.03829841589097424,0
292,0.011679999999999913,5.000049991798719,0.030385191273714543,0.037929850874632666,0
293,0.011719999999999953,4.99972120164681,0.029070031915759978,0.03657499895868349,0
294,0.011759999999999993,4.99972120164681,0.030056401434036775,0.03752175855035739,0
295,0.011800000000000033,5.000049991798719,0.026110923367741706,0.033536753200950065,0
296,0.011840000000000073,5.000049991798719,0.027097292882612076,0.03448367808754861,0
297,0.011880000000000113,5.000049991798719,0.028741242076586612,0.03608826531869293,0
298,0.01191999999999993,4.99972120164681,0.0313715607935042,0.03867930474807492,0
299,0.01195999999999997,5.000378781950543,0.028741242076586612,0.03600978942802177,0
300,0.01200000000000001,4.99972120164681,0.025453343691792682,0.032682777132850616,0
301,0.01204000000000005,4.999392411494816,0.027426082721154613,0.03461648495220547,0
302,0.01208000000000009,5.000378781950543,0.030385191273714543,0.037536645001994315,0
303,0.012119999999999909,5.000378781950543,0.025124553854007567,0.03223714179287262,0
304,0.012159999999999949,5.000378781950543,0.029727611594485073,0.0368014164626672,0
305,0.012199999999999989,5.000049991798719,0.027426082721154613,0.0344611872420167,0
306,0.012240000000000029,5.000378781950543,0.029727611594485073,0.03672409849527726,0
307,0.012280000000000069,5.000049991798719,0.0264397132059056,0.033397665217022164,0
308,0.012320000000000109,5.000049991798719,0.024795764016348754,0.031715263870585514,0
309,0.012359999999999927,5.000049991798719,0.029727611594485073,0.03660874202629752,0
310,0.012399999999999967,5.000378781950543,0.029727611594485073,0.03657045533924709,0
311,0.012440000000000007,4.999392411494816,0.027754872559823354,0.034559512353086706,0
312,0.012480000000000047,4.999392411494816,0.028412452237539368,0.03517897081429378,0
313,0.012520000000000087,5.001365152405508,0.0323579303144281,0.03908641040836205,0
314,0.012559999999999905,4.999063621342738,0.030056401434036775,0.0367469257767989,0
315,0.012599999999999945,4.999392411494816,0.028083662398618273,0.03473631371907959,0
316,0.012639999999999985,5.001036362253937,0.025782133529704057,0.03239699455322081,0
317,0.012680000000000025,4.99972120164681,0.0264397132059056,0.03301686665358286,0
318,0.012720000000000065,4.99972120164681,0.027426082721154613,0.03396561130911073,0
319,0.012760000000000105,5.000049991798719,0.0264397132059056,0.0329416996445374,0
320,0.012799999999999923,4.99972120164681,0.025782133529704057,0.032246660522952775,0
321,0.012839999999999963,5.000049991798719,0.02676850304419573,0.033195653288813735,0
322,0.012880000000000003,5.000049991798719,0.028083662398618273,0.03447351858343656,0
323,0.012920000000000043,5.000049991798719,0.029398821755059465,0.035751466560255976,0
324,0.012960000000000083,4.999063621342738,0.030385191273714543,0.03670070737008331,0
325,0.0129999999999999,4.999392411494816,0.025124553854007567,0.031403023902228655,0
326,0.01303999999999994,4.99972120164681,0.029727611594485073,0.0359691182443953,0
327,0.01307999999999998,4.99972120164681,0.025453343691792682,0.03165796958165717,0
328,0.01312000000000002,5.000049991798719,0.024795764016348754,0.030963591772133307,0
329,0.01316000000000006,5.000378781950543,0.026110923367741706,0.03224203560238606,0
330,0.0132000000000001,5.000049991798719,0.025124553854007567,0.03121903316669951,0
331,0.013239999999999919,5.000049991798719,0.029727611594485073,0.03578554056993538,0
332,0.013279999999999959,4.999392411494816,0.029398821755059465,0.035420282962777654,0
333,0.013319999999999999,5.000378781950543,0.027426082721154613,0.033411158714725636,0
334,0.013360000000000039,4.999392411494816,0.029398821755059465,0.03534759507142136,0
335,0.013400000000000079,4.99972120164681,0.0264397132059056,0.032352266364628006,0
336,0.013439999999999896,5.000378781950543,0.026110923367741706,0.031987338870305256,0
337,0.013479999999999936,5.000707572102282,0.028412452237539368,0.03425281256661608,0
338,0.013519999999999976,5.000049991798719,0.028083662398618273,0.03388805001735287,0
339,0.013560000000000016,4.99972120164681,0.025453343691792682,0.031221841043084946,0
340,0.013600000000000056,5.000378781950543,0.031042770953448276,0.03677546045923637,0
341,0.013640000000000096,5.000378781950543,0.024795764016348754,0.03049272807689346,0
342,0.013679999999999914,5.000049991798719,0.025124553854007567,0.030785874847177486,0
343,0.013719999999999954,5.000378781950543,0.029070031915759978,0.03469579219631774,0
344,0.013759999999999994,5.000378781950543,0.026110923367741706,0.03170120526663118,0
345,0.013800000000000034,5.001036362253937,0.027754872559823354,0.03330975838345784,0
346,0.013840000000000074,4.99972120164681,0.025124553854007567,0.030644125883559144,0
347,0.013879999999999892,4.99972120164681,0.025124553854007567,0.030608894344697428,0
348,0.013919999999999932,5.001365152405508,0.028083662398618273,0.03353285357900818,0
349,0.013959999999999972,4.998077250885994,0.021507865646709548,0.02692198971799436,0
350,0.014000000000000012,4.999392411494816,0.02216544531962629,0.02754458445492748,0
351,0.014040000000000052,5.001365152405508,0.025453343691792682,0.03079758003545304,0
352,0.014080000000000092,4.998406041038327,0.023809394504130166,0.029118810171009563,0
353,0.01411999999999991,4.99972120164681,0.023809394504130166,0.0290840715789025,0
354,0.01415999999999995,4.99972120164681,0.029070031915759978,0.03431005245221125,0
355,0.01419999999999999,5.000049991798719,0.0264397132059056,0.031645159226233004,0
356,0.01424000000000003,5.000707572102282,0.023809394504130166,0.02898034799824238,0
357,0.01428000000000007,4.99972120164681,0.027097292882612076,0.032233835807430763,0
358,0.01432000000000011,5.000049991798719,0.022494235156274286,0.027596449435036773,0
359,0.014359999999999928,5.000049991798719,0.021836655483104705,0.026904623004667914,0
360,0.014399999999999968,5.000049991798719,0.022823024993048696,0.027856827611194214,0
361,0.014440000000000008,5.000049991798719,0.023809394504130166,0.028809114036870503,0
362,0.014480000000000048,5.000378781950543,0.0264397132059056,0.03140543143479158,0
363,0.014520000000000088,5.000707572102282,0.0264397132059056,0.03137151187533492,0
364,0.014559999999999906,5.000049991798719,0.03433066935967702,0.03922863017620388,0
365,0.014599999999999946,5.001036362253937,0.028412452237539368,0.03327665686918527,0
366,0.014639999999999986,4.99972120164681,0.024795764016348754,0.029626294091914508,0
367,0.014680000000000026,4.99972120164681,0.025453343691792682,0.030250280800171586,0
368,0.014720000000000066,4.99972120164681,0.024466974178816228,0.029230399868308506,0
369,0.014760000000000106,5.000049991798719,0.02676850304419573,0.03149849882182421,0
370,0.014799999999999924,5.000378781950543,0.030385191273714543,0.035081838604541705,0
371,0.014839999999999964,5.000378781950543,0.023480604666976643,0.028143984973422922,0
372,0.014880000000000004,5.000378781950543,0.027754872559823354,0.03238506722098681,0
373,0.014920000000000044,5.000378781950543,0.028083662398618273,0.032680752749595574,0
374,0.014960000000000084,5.000049991798719,0.024138184341410046,0.028702251672618716,0
375,0.014999999999999902,5.000378781950543,0.024466974178816228,0.028998099735318174,0
376,0.015039999999999942,5.000378781950543,0.022823024993048696,0.027321289973875125,0
377,0.015079999999999982,4.99972120164681,0.024466974178816228,0.02893245973629386,0
378,0.015120000000000022,5.000378781950543,0.023809394504130166,0.028242181743208743,0
379,0.015160000000000062,5.000049991798719,0.025453343691792682,0.029853513669373923,0
380,0.015200000000000102,5.000378781950543,0.029070031915759978,0.03343766564002799,0
381,0.01523999999999992,5.000049991798719,0.027754872559823354,0.03209005098957642,0
382,0.01527999999999996,5.001036362253937,0.024466974178816228,0.02876977822280006,0
383,0.01532,5.000049991798719,0.025782133529704057,0.030052644045946444,0
384,0.01536000000000004,5.000049991798719,0.030385191273714543,0.03462348906886143,0
385,0.01540000000000008,4.99972120164681,0.027754872559823354,0.03196103838847635,0
386,0.015439999999999898,5.000049991798719,0.027754872559823354,0.03192898712387871,0
387,0.015479999999999938,5.000707572102282,0.028412452237539368,0.032554596185528376,0
388,0.015519999999999978,5.000378781950543,0.0264397132059056,0.030549967132336486,0
389,0.015560000000000018,4.999063621342738,0.028083662398618273,0.032162106843319486,0
390,0.015600000000000058,5.000049991798719,0.028412452237539368,0.03245916768500433,0
391,0.0156400000000001,5.000049991798719,0.027754872559823354,0.031769939438556674,0
392,0.015679999999999916,5.000049991798719,0.028741242076586612,0.03272474075845181,0
393,0.015719999999999956,4.99972120164681,0.025782133529704057,0.029734144329272766,0
394,0.015759999999999996,4.99972120164681,0.029398821755059465,0.033319424928962206,0
395,0.015800000000000036,4.99972120164681,0.026110923367741706,0.030000199114020278,0
396,0.015840000000000076,4.99972120164681,0.02676850304419573,0.03062653150165709,0
397,0.015879999999999894,5.000049991798719,0.026110923367741706,0.029937784615313462,0
398,0.015919999999999934,5.000049991798719,0.021836655483104705,0.025632429539192154,0
399,0.015959999999999974,5.000049991798719,0.029398821755059465,0.03316358857690415,0
400,0.016000000000000014,5.000378781950543,0.02315181482994949,0.026885654312989386,0
401,0.016040000000000054,4.99972120164681,0.021507865646709548,0.025210857623940798,0
402,0.016080000000000094,5.000378781950543,0.022823024993048696,0.026495249234388937,0
403,0.016119999999999912,5.000049991798719,0.022494235156274286,0.026135771367927593,0
404,0.016159999999999952,5.000049991798719,0.029070031915759978,0.03268095973958337,0
405,0.016199999999999992,5.000707572102282,0.03268672015498804,0.03626711916785962,0
406,0.016240000000000032,5.000378781950543,0.037947357621069405,0.04149730733425811,0
407,0.016280000000000072,5.000049991798719,0.037289777936047624,0.040809357794584576,0
408,0.016320000000000112,4.99972120164681,0.0353170388840013,0.03880632826605286,0
409,0.01635999999999993,5.000049991798719,0.034988249042434,0.03844732725867651,0
410,0.01639999999999997,5.000378781950543,0.03465945920099257,0.038088405493988675,0
411,0.01644000000000001,5.000378781950543,0.03597461856751347,0.039373512111090136,0
412,0.01648000000000005,5.000378781950543,0.03663219825152894,0.04000111815015722,0
413,0.01652000000000009,5.000378781950543,0.03827614746376892,0.041615172751945345,0
414,0.016559999999999908,5.000049991798719,0.0392625169926218,0.04257172663425156,0
415,0.016599999999999948,5.000049991798719,0.03860493730659416,0.041884410194376026,0
416,0.016639999999999988,5.000378781950543,0.036303408409458296,0.039553223364271216,0
417,0.016680000000000028,5.000378781950543,0.03696098809372539,0.040181223864016874,0
418,0.016720000000000068,4.99972120164681,0.03597461856751347,0.03916535382868974,0
419,0.016760000000000108,4.99972120164681,0.034988249042434,0.038149562396251946,0
420,0.016799999999999926,5.000378781950543,0.033673089677423634,0.03680505965138445,0
421,0.016839999999999966,5.000378781950543,0.03433066935967702,0.03743337440642181,0
422,0.016880000000000006,5.000049991798719,0.03433066935967702,0.03740418785638415,0
423,0.016920000000000046,4.99972120164681,0.030713981113518377,0.033758391361302535,0
424,0.016960000000000086,5.000707572102282,0.02676850304419573,0.029783883267508825,0
425,0.016999999999999904,5.000378781950543,0.023809394504130166,0.02679582285016402,0
426,0.017039999999999944,5.000378781950543,0.020521496138282788,0.023479050676373653,0
427,0.017079999999999984,5.000707572102282,0.023480604666976643,0.02640936338801147,0
428,0.017120000000000024,5.000049991798719,0.029398821755059465,0.03229886257088409,0
429,0.017160000000000064,4.999392411494816,0.03400187951848738,0.03687328026131664,0
430,0.017200000000000104,5.000049991798719,0.037289777936047624,0.040132616357877404,0
431,0.017239999999999922,5.000049991798719,0.0313715607935042,0.0341859145655252,0
432,0.017279999999999962,5.000378781950543,0.030713981113518377,0.03349992782553182,0
433,0.017320000000000002,5.000049991798719,0.028083662398618273,0.030841279558453456,0
434,0.017360000000000042,5.000707572102282,0.029727611594485073,0.03245697662741886,0
435,0.017400000000000082,4.99972120164681,0.0323579303144281,0.0350591205626062,0
436,0.0174399999999999,5.000378781950543,0.040577676366185214,0.04325076908804537,0
437,0.01747999999999994,5.000378781950543,0.048139842803156765,0.05078491517285395,0
438,0.01751999999999998,4.99972120164681,0.05537321945707481,0.05799034856390828,0
439,0.01756000000000002,5.000049991798719,0.05898990780673173,0.06157917065457397,0
440,0.01760000000000006,5.000378781950543,0.06523691499171154,0.0677983884984391,0
441,0.0176400000000001,5.000378781950543,0.06918239323698341,0.07171615423390976,0
442,0.017679999999999918,5.000049991798719,0.0757581903522391,0.07826431558354939,0
443,0.017719999999999958,5.000049991798719,0.08069003822127407,0.08316860434346204,0
444,0.017759999999999998,5.000378781950543,0.09252647322063803,0.09497755680194488,0
445,0.017800000000000038,4.99972120164681,0.09614316172460258,0.09856683924445782,0
446,0.017840000000000078,5.000049991798719,0.10732201719471773,0.10971836504318178,0
447,0.017879999999999896,4.99972120164681,0.11192507537076382,0.11429416984797258,0
448,0.017919999999999936,5.000378781950543,0.11718571331566852,0.1195276306312803,0
449,0.017959999999999976,4.99972120164681,0.1250766702917519,0.1273914865643961,0
450,0.018000000000000016,5.000049991798719,0.1346115767316295,0.1368993679883572,0
451,0.018040000000000056,5.000707572102282,0.1398722148112378,0.1421330569869743,0
452,0.018080000000000096,5.000049991798719,0.1441464832738101,0.14638045221080953,0
453,0.018119999999999914,5.000378781950543,0.15236623037478086,0.15457340182208304,0
454,0.018159999999999954,5.000049991798719,0.15861323822206289,0.16079368783495213,0
455,0.018199999999999994,5.000378781950543,0.16420266633286126,0.16635646967232726,0
456,0.018240000000000034,5.000378781950543,0.176039102446966,0.17816633497916723,0
457,0.018280000000000074,5.000378781950543,0.17834063170943854,0.1804413688051673,0
458,0.018320000000000114,5.000378781950543,0.18425884983988045,0.18633316677403006,0
459,0.018359999999999932,5.000049991798719,0.1862315892253052,0.18827956117633948,0
460,0.018399999999999972,4.99972120164681,0.19083464780801468,0.1928563498574394,0
461,0.018440000000000012,4.99972120164681,0.19741044582385264,0.19940595295568947,0
462,0.018480000000000052,4.99972120164681,0.204643823696239,0.2066132107965014,0
463,0.018520000000000092,5.000707572102282,0.2105620419981934,0.21250538385436443,0
464,0.01855999999999991,5.000049991798719,0.22667274756988962,0.228590118870402,0
465,0.01859999999999995,5.000378781950543,0.23324854584375157,0.23514002117746965,0
466,0.01863999999999999,5.000049991798719,0.2312758063566546,0.2331414602123587,0
467,0.01868000000000003,5.000707572102282,0.23061822652856245,0.23245813329443513,0
468,0.01872000000000007,4.99972120164681,0.22667274756988962,0.22848698153300426,0
469,0.01876000000000011,4.99972120164681,0.22765911730796928,0.22944775265378092,0
470,0.018799999999999928,5.000049991798719,0.23259096601424928,0.23435407682608722,0
471,0.018839999999999968,5.000378781950543,0.23752281474696402,0.2392604750055263,0
472,0.018880000000000008,4.99972120164681,0.24015313408187114,0.24186541766472108,0
473,0.018920000000000048,4.999392411494816,0.24804409213155615,0.24973107281262036,0
474,0.018960000000000088,4.99972120164681,0.2536335207908104,0.255295272239879,0
475,0.018999999999999906,5.000049991798719,0.2585653696357846,0.26020196541801377,0
476,0.019039999999999946,4.99972120164681,0.2569214200178812,0.2585329335932982,0
477,0.019079999999999986,5.000378781950543,0.2598805293322023,0.26146703405521277,0
478,0.019120000000000026,5.000707572102282,0.26514116813647703,0.2667027372553743,0
479,0.019160000000000066,5.000378781950543,0.27237454654087584,0.2739112531973522,0
480,0.019200000000000106,5.000049991798719,0.2766488156243746,0.278160732853035,0
481,0.019239999999999924,4.99972120164681,0.2759912357641022,0.27747843649197995,0
482,0.019279999999999964,5.000378781950543,0.2819094545231934,0.28337201156926806,0
483,0.019320000000000004,5.000049991798719,0.285526143783271,0.2869641298579896,0
484,0.019360000000000044,4.99972120164681,0.2914443626025587,0.2928578503073591,0
485,0.019400000000000084,4.99972120164681,0.29341710221727124,0.294806164044108,0
486,0.019439999999999902,4.99972120164681,0.29736258145910344,0.29872728978997554,0
487,0.019479999999999942,5.000378781950543,0.30558232993262635,0.30692275703910804,1
488,0.019519999999999982,5.000049991798719,0.30032169090132177,0.3016379089440948,0
489,0.019560000000000022,4.99972120164681,0.3009792707786314,0.30227135180702047,0
490,0.019600000000000062,5.000049991798719,0.3009792707786314,0.30224728673014145,0
491,0.019640000000000102,4.99972120164681,0.29571863177299734,0.2969626544728533,0
492,0.01967999999999992,5.000378781950543,0.29177315253805675,0.2929932536987453,0
493,0.01971999999999996,5.000707572102282,0.2865125135838949,0.2877087648047082,0
494,0.01976,5.000049991798719,0.282238244455351,0.283410717221933,0
495,0.01980000000000004,4.99972120164681,0.2756624458341395,0.2768112115180344,0
496,0.01984000000000008,4.99972120164681,0.26514116813647703,0.26626629799467993,0
497,0.019879999999999898,5.000049991798719,0.25133199133879747,0.2524335565133076,0
498,0.019919999999999938,5.000378781950543,0.24245466350606643,0.24353273502344275,0
499,0.019959999999999978,5.000049991798719,0.23291975592894168,0.23397440469986042,0
500,0.020000000000000018,5.000049991798719,0.22371363836201,0.22474493518082467,0
501,0.020040000000000058,4.999392411494816,0.20924688237221817,0.2102548979165211,0
502,0.020080000000000098,5.000049991798719,0.1960952862168741,0.19708009104706026,0
503,0.020119999999999916,5.000049991798719,0.18656037912329415,0.1875220436821272,0
504,0.020159999999999956,5.000049991798719,0.17768305191956152,0.17862164653174248,0
505,0.020199999999999996,4.99972120164681,0.16518903600308638,0.16610463087482463,0
506,0.020240000000000036,5.000049991798719,0.15565412923633737,0.15654679445492387,0
507,0.020280000000000076,5.000378781950543,0.14842075175687197,0.1492905572902548,0
508,0.020319999999999894,5.000049991798719,0.1392146350495857,0.14006165074594795,0
509,0.020359999999999934,4.99972120164681,0.13132367794768446,0.1321479735350242,0
510,0.020399999999999974,5.001036362253937,0.11948724242641957,0.12028888751213221,0
511,0.020440000000000014,5.000049991798719,0.10896596654054455,0.1097450306110072,0
512,0.020480000000000054,5.000049991798719,0.10732201719471773,0.10807856961487605,0
513,0.020520000000000094,4.99972120164681,0.09614316172460258,0.09687727173755971,0
514,0.02055999999999991,5.000049991798719,0.08825220500793643,0.088963941734544,0
515,0.02059999999999995,4.99972120164681,0.08529309625753255,0.08598252869598395,0
516,0.02063999999999999,5.000049991798719,0.07641577006649763,0.07708296709192342,0
517,0.02068000000000003,4.999392411494816,0.07181271207711976,0.07245774244118534,0
518,0.02072000000000007,5.000378781950543,0.06359296572814185,0.0642158980586474,0
519,0.02076000000000011,4.99972120164681,0.060962646912913254,0.06156354971339591,0
520,0.02079999999999993,5.000378781950543,0.06030506721035353,0.06088400885969204,0
521,0.02083999999999997,4.999063621342738,0.05340048036363608,0.053957529115657946,0
522,0.02088000000000001,5.000707572102282,0.05044137173192248,0.050976595715013215,0
523,0.02092000000000005,5.000378781950543,0.05274290066682373,0.053256367883538464,0
524,0.02096000000000009,4.999392411494816,0.05340048036363608,0.053892258690313596,0
525,0.020999999999999908,5.001036362253937,0.04945500219027131,0.04992515937665015,0
526,0.021039999999999948,5.000049991798719,0.05471563975876172,0.055164243427598875,0
527,0.021079999999999988,5.000049991798719,0.059647487508292976,0.060074605154984695,0
528,0.021120000000000028,4.99972120164681,0.06688086425839593,0.06728656325060099,0
529,0.021160000000000068,5.000378781950543,0.06622328455134852,0.06660763212861372,0
530,0.021200000000000108,5.000707572102282,0.07016876280110178,0.07053182607448984,0
531,0.021239999999999926,4.99972120164681,0.07674455992381307,0.0770864058755329,0
532,0.021279999999999966,5.000378781950543,0.08233398751715135,0.08265468300019056,0
533,0.021320000000000006,5.000049991798719,0.08923857459362991,0.08953818633138956,0
534,0.021360000000000046,4.99972120164681,0.09778711104951865,0.09806570563545024,0
535,0.021400000000000086,5.000049991798719,0.10239016917566456,0.10264781307290936,0
536,0.021439999999999904,5.000378781950543,0.10995233614951355,0.11018909569054411,0
537,0.021479999999999944,4.99972120164681,0.11850087280679227,0.11871681419305644,0
538,0.021519999999999984,4.99972120164681,0.12672061967062423,0.12691580897219176,0
539,0.021560000000000024,5.000049991798719,0.13033730831487508,0.13051181147008634,0
540,0.021600000000000064,5.000049991798719,0.1369131058876297,0.13706698870274653,0
541,0.021640000000000104,5.000707572102282,0.14611922257114063,0.1462525507199997,0
542,0.02167999999999992,4.99972120164681,0.1549965494630596,0.15510938848672795,0
543,0.02171999999999996,5.000049991798719,0.15992839777441112,0.1600208130808442,0
544,0.02176,5.000378781950543,0.16880572480317563,0.16887778166687772,0
545,0.02180000000000004,5.000378781950543,0.1750527327648472,0.17510449632653433,0
546,0.02184000000000008,5.000378781950543,0.18425884983988045,0.18429038510614573,0
547,0.0218799999999999,5.000049991798719,0.18491642963454402,0.18492780147752552,0
548,0.02191999999999994,5.000378781950543,0.18754674881797762,0.18753802197502825,0
549,0.02195999999999998,5.000378781950543,0.1937937569092451,0.19376499598260521,0
550,0.02200000000000002,5.000049991798719,0.19346496700863167,0.19341623646510359,0
551,0.02204000000000006,5.000707572102282,0.19478012661180016,0.19471149078242542,0
552,0.0220800000000001,4.99972120164681,0.19576649631542703,0.1956780193951659,0
553,0.022119999999999918,4.99972120164681,0.19543770641409902,0.19532945246151234,0
554,0.022159999999999958,5.000378781950543,0.19478012661180016,0.19465215954873327,0
555,0.022199999999999998,4.99972120164681,0.18853311851373566,0.18838550212500468,0
556,0.022240000000000038,5.000707572102282,0.1862315892253052,0.1860643871583854,0
557,0.022280000000000078,5.000049991798719,0.1812997407698131,0.18111301653452988,0
558,0.022319999999999895,4.998406041038327,0.1757103125528065,0.17550412952102873,0
559,0.022359999999999935,4.998406041038327,0.1684769349116572,0.16825135631699267,0
560,0.022399999999999975,5.001365152405508,0.16453145622281592,0.1642865451603097,0
561,0.022440000000000015,4.99972120164681,0.1592708179979958,0.15900663742383075,0
562,0.022480000000000055,5.001036362253937,0.15137986071867066,0.1510964734498704,0
563,0.022520000000000095,4.998406041038327,0.1418449540991078,0.14154242281324214,0
564,0.022559999999999913,4.998077250885994,0.13198125770349964,0.1316596449383927,0
565,0.022599999999999953,5.000378781950543,0.12244635129190345,0.12210571944534418,0
566,0.022639999999999993,4.99972120164681,0.11422660446780088,0.11386701579725621,0
567,0.022680000000000033,5.000049991798719,0.10403411851227598,0.10365563513460586,0
568,0.022720000000000073,5.000049991798719,0.09581437185998914,0.09541705575116416,0
569,0.022760000000000113,5.000049991798719,0.08529309625753255,0.08487700925235385,0
570,0.02279999999999993,5.000049991798719,0.07510061063847716,0.0746658144302989,0
571,0.02283999999999997,5.000378781950543,0.06622328455134852,0.0657698406918026,0
572,0.02288000000000001,4.99972120164681,0.05438684990979273,0.053914819808515785,0
573,0.02292000000000005,4.99972120164681,0.041564045897676996,0.04107349082204001,0
574,0.02296000000000009,5.000707572102282,0.029398821755059465,0.028889802829899947,0
575,0.02299999999999991,5.000049991798719,0.022823024993048696,0.022295603200405217,0
576,0.02303999999999995,4.99972120164681,0.011644170613713423,0.01109840679256252,0
577,0.02307999999999999,4.999392411494816,-0.00019226327513760522,-0.0007563084291422884,0
578,0.02312000000000003,4.99972120164681,-0.00939837840793746,-0.009980644342723721,0
579,0.02316000000000007,5.000049991798719,-0.015316595226152155,-0.015917021533484815,0
580,0.02320000000000011,4.99972120164681,-0.02715302873807933,-0.027771555153813215,0
581,0.023239999999999927,4.99972120164681,-0.037016723204157484,-0.03765328960848763,0
582,0.023279999999999967,4.99972120164681,-0.046880417554202566,-0.0475349639719119,0
583,0.023320000000000007,5.000049991798719,-0.05575774236972354,-0.05643020897042805,0
584,0.023360000000000047,4.999392411494816,-0.06496385689333826,-0.06565418399172931,0
585,0.023400000000000087,4.99972120164681,-0.07548513050968754,-0.07619325856577158,0
586,0.023439999999999905,5.000049991798719,-0.08008818767482774,-0.08081405729416336,0
587,0.023479999999999945,5.000049991798719,-0.08666398358056253,-0.08740753551449396,0
588,0.023519999999999985,4.99972120164681,-0.09093825089119083,-0.09169942603707956,0
589,0.023560000000000025,5.000378781950543,-0.09455493859824966,-0.0953336779997033,0
590,0.023600000000000065,5.000049991798719,-0.09554130797014417,-0.09633755281724299,0
591,0.023640000000000105,5.000049991798719,-0.09389735901632983,-0.09471105064585147,0
592,0.023679999999999923,5.000378781950543,-0.09521251817964406,-0.09604359807528531,0
593,0.023719999999999963,5.000049991798719,-0.08962309172105022,-0.09047150151364577,0
594,0.023760000000000003,4.99972120164681,-0.08502003460903816,-0.08588571607677672,0
595,0.023800000000000043,5.000378781950543,-0.08074576726775658,-0.08162866233639487,0
596,0.023840000000000083,4.999392411494816,-0.07351239171679176,-0.07441244245986606,0
597,0.0238799999999999,5.000049991798719,-0.06529264669586828,-0.06620979533490365,0
598,0.02391999999999994,5.000378781950543,-0.057730481204784426,-0.05866467010950138,0
599,0.02395999999999998,5.000049991798719,-0.046880417554202566,-0.047831589242721295,0
600,0.02400000000000002,5.000049991798719,-0.0389894620834612,-0.03995755922250355,0
601,0.02404000000000006,5.000049991798719,-0.028796977823800904,-0.029781943228889746,0
602,0.0240800000000001,5.000378781950543,-0.01926207308192608,-0.020263849717581855,0
603,0.02411999999999992,5.000049991798719,-0.00808321910937683,-0.009101750089311689,0
604,0.02415999999999996,5.000378781950543,0.004410794328726292,0.0033755657414168694,0
605,0.0242,5.000707572102282,0.013616909611190692,0.012565040003838832,0
606,0.02424000000000004,4.99972120164681,0.024138184341410046,0.023069730151588738,0
607,0.02428000000000008,4.99972120164681,0.028741242076586612,0.027656259591925803,0
608,0.024319999999999897,4.99972120164681,0.034988249042434,0.03388679440043915,0
609,0.024359999999999937,4.99972120164681,0.04879742249646346,0.04767955168433684,0
610,0.024399999999999977,5.000378781950543,0.059647487508292976,0.05851325636275741,0
611,0.024440000000000017,5.000378781950543,0.0626065961714958,0.06145606037862095,0
612,0.024480000000000057,5.000378781950543,0.0672096541121064,0.06604286920713755,0
613,0.024520000000000097,5.000049991798719,0.0757581903522391,0.07457521171942869,0
614,0.024559999999999915,4.99972120164681,0.07279908164422239,0.07159996451666395,0
615,0.024599999999999955,5.000049991798719,0.0813476179392533,0.08013241739871826,0
616,0.024639999999999995,5.000378781950543,0.08825220500793643,0.08702097598471342,0
617,0.024680000000000035,4.99972120164681,0.09614316172460258,0.09489595899733928,0
618,0.024720000000000075,5.000049991798719,0.1033765387772625,0.10211341697281004,0
619,0.024759999999999893,5.000049991798719,0.10995233614951355,0.10867334974277346,0
620,0.024799999999999933,4.99972120164681,0.11521297408265467,0.11391817739642812,0
621,0.024839999999999973,5.000707572102282,0.12080240192096793,0.11949184912580751,0
622,0.024880000000000013,5.000378781950543,0.12113119179491064,0.11980493690897435,0
623,0.024920000000000053,4.99972120164681,0.12967972856027796,0.12833782544918576,0
624,0.024960000000000093,4.999392411494816,0.1382282654080184,0.13687076778471152,0
625,0.02499999999999991,5.000049991798719,0.1418449540991078,0.14047191552371033,0
626,0.02503999999999995,4.99972120164681,0.1487495416410322,0.1473610155207154,0
627,0.02507999999999999,4.99972120164681,0.15269502026039275,0.15129105984924193,0
628,0.02512000000000003,5.000049991798719,0.16124355732868845,0.15982421572757247,0
629,0.02516000000000007,5.000378781950543,0.16486024611289096,0.16342557626933404,0
630,0.02520000000000011,4.99972120164681,0.16650419556507132,0.16505425027312762,0
631,0.02523999999999993,4.99972120164681,0.1714360439396491,0.16997087583977968,0
632,0.02527999999999997,4.99972120164681,0.1773542620248027,0.17587392360375503,0
633,0.02532000000000001,5.000378781950543,0.18754674881797762,0.1860512924086671,0
634,0.02536000000000005,5.000049991798719,0.19412254680997768,0.19261202459137164,0
635,0.02540000000000009,5.000707572102282,0.19445133671082937,0.19292580070783336,0
636,0.025439999999999907,5.000049991798719,0.18820432861503028,0.18666383069837708,0
637,0.025479999999999947,5.001036362253937,0.18491642963454402,0.18336102152068492,0
638,0.025519999999999987,4.99972120164681,0.18327248014878164,0.1817022133997799,0
639,0.025560000000000027,4.99972120164681,0.18951948821056797,0.1879344142339949,0
640,0.025600000000000067,4.99972120164681,0.19050585790847407,0.1889060279573074,0
641,0.025640000000000107,4.99972120164681,0.19412254680997768,0.19250801198250256,0
642,0.025679999999999925,4.99972120164681,0.19346496700863167,0.1918357782483443,0
643,0.025719999999999965,5.000049991798719,0.19182101750735198,0.19017722560286576,0
644,0.025760000000000005,4.999392411494816,0.1898482781097507,0.1881899336947047,0
645,0.025800000000000045,5.000049991798719,0.18458763973715245,0.18291479329012256,0
646,0.025840000000000085,5.000049991798719,0.18162853066600876,0.1799412325104212,0
647,0.025879999999999903,5.000049991798719,0.1757103125528065,0.17400861285685362,0
648,0.025919999999999943,4.99972120164681,0.17669668223564464,0.1749806310122033,0
649,0.025959999999999983,5.000378781950543,0.1740663630838078,0.17233601019035966,0
650,0.026000000000000023,5.000378781950543,0.1694633045865731,0.1677186997251274,0
651,0.026040000000000063,5.000049991798719,0.1658466157838382,0.16408780850085689,0
652,0.026080000000000103,5.000049991798719,0.1605859775513087,0.15881301723763414,0
653,0.02611999999999992,4.99972120164681,0.15762686855906824,0.1558398044498535,0
654,0.02615999999999996,5.000049991798719,0.1533526000319791,0.15155148120662068,0
655,0.0262,5.000049991798719,0.15006470117888354,0.14824957656095641,0
656,0.02624000000000004,5.000049991798719,0.14513285292192996,0.14330377127912486,0
657,0.02628000000000008,4.999392411494816,0.140201004692246,0.1383580146363094,0
658,0.0263199999999999,5.000378781950543,0.1382282654080184,0.13637141539469455,0
659,0.02635999999999994,5.000049991798719,0.13198125770349964,0.1301105960324753,0
660,0.02639999999999998,5.000049991798719,0.1257342500429348,0.1238498248577864,0
661,0.02644000000000002,5.000378781950543,0.12310393104113287,0.12120579032927617,0
662,0.02648000000000006,4.999392411494816,0.12080240192096793,0.1188905935136099,0
663,0.0265200000000001,5.000378781950543,0.11718571331566852,0.11526028488776155,0
664,0.026559999999999917,5.000049991798719,0.10797959693268015,0.1060405960028787,0
665,0.026599999999999957,4.99972120164681,0.10304774890994019,0.10109522284055947,0
666,0.026639999999999997,4.99972120164681,0.09877348064594688,0.09680747664292383,0
667,0.026680000000000037,5.000049991798719,0.09745832118428896,0.09547888629714568,0
668,0.026720000000000077,4.99972120164681,0.09351284281114798,0.09152002393295747,0
669,0.026759999999999895,4.99972120164681,0.09088252390559022,0.08887636777294453,0
670,0.026799999999999935,4.999392411494816,0.08759462528475882,0.08557517847773959,0
671,0.026839999999999975,5.000049991798719,0.07970366864523482,0.07767097758738599,0
672,0.026880000000000015,4.99972120164681,0.06951118309156513,0.06746529404986791,0
673,0.026920000000000055,5.000378781950543,0.05603079915588792,0.05397175824073791,0
674,0.026960000000000095,5.000049991798719,0.05274290066682373,0.050670753832010335,0
675,0.026999999999999913,5.000707572102282,0.050112581884580176,0.04802737492726823,0
676,0.027039999999999953,5.000049991798719,0.05175653112254362,0.04965830968325735,0
677,0.027079999999999993,4.999063621342738,0.04781105295669137,0.045699862519300666,0
678,0.027120000000000033,5.000049991798719,0.04419436465384674,0.042070250545555826,0
679,0.027160000000000073,5.000378781950543,0.037618567778495635,0.03548157516983408,0
680,0.027200000000000113,5.000049991798719,0.02676850304419573,0.024618676949011598,0
681,0.02723999999999993,5.000049991798719,0.021836655483104705,0.019674040758559788,0
682,0.02727999999999997,5.000049991798719,0.008685062126061585,0.006509703472628886,0
683,0.02732000000000001,4.99972120164681,0.0014516858662357995,-0.0007363721723004646,0
684,0.02736000000000005,5.000378781950543,-0.0031513717215847087,-0.005352084758126874,0
685,0.02740000000000009,5.000049991798719,-0.00939837840793746,-0.011611702212069641,0
686,0.02743999999999991,5.000049991798719,-0.010713537704454032,-0.012939428202435349,0
687,0.02747999999999995,5.000378781950543,-0.024851500012672237,-0.02708991328742774,0
688,0.02751999999999999,5.000049991798719,-0.03471519450577058,-0.03696608679688021,0
689,0.02756000000000003,4.99972120164681,-0.04326372963934923,-0.045527057343034305,0
690,0.02760000000000007,4.999392411494816,-0.052469844300912574,-0.054745563970020034,0
691,0.02764000000000011,5.000049991798719,-0.05674411178783788,-0.0590321801318221,0
692,0.027679999999999927,4.99972120164681,-0.06923812431607472,-0.07153849820097694,0
693,0.027719999999999967,5.000049991798719,-0.07351239171679176,-0.07582502816521786,0
694,0.027760000000000007,5.000049991798719,-0.08140334686016236,-0.0837282030512585,0
695,0.027800000000000047,5.000049991798719,-0.09323977943388458,-0.09557681270331095,0
696,0.027840000000000087,4.99972120164681,-0.09948678544589158,-0.10183595328579426,0
697,0.027879999999999905,5.000049991798719,-0.10967926883715166,-0.11204052889613231,0
698,0.027919999999999945,5.000049991798719,-0.11921417253994292,-0.12158748262302649,0
699,0.027959999999999985,5.000378781950543,-0.1277627067995044,-0.13014802486810473,0
700,0.028000000000000025,5.000049991798719,-0.13006423523867633,-0.13246151941055972,0
701,0.028040000000000065,4.99972120164681,-0.13664003074327558,-0.13904923929252208,0
702,0.028080000000000105,5.000049991798719,-0.14979162159258003,-0.15221271294954308,0
703,0.028119999999999923,5.000378781950543,-0.15899773505985432,-0.16143066781111848,0
704,0.028159999999999963,5.000049991798719,-0.16688868937670803,-0.1693334222650451,0
705,0.028200000000000003,5.000378781950543,-0.17313569482264318,-0.17559218674696642,0
706,0.028240000000000043,5.000049991798719,-0.18562970556853736,-0.1880979155838532,0
707,0.028280000000000083,5.000049991798719,-0.19187671086830504,-0.1943565981856628,0
708,0.0283199999999999,5.000049991798719,-0.20009645460925096,-0.2025879785956901,0
709,0.02835999999999994,5.000378781950543,-0.2063434597955987,-0.20884657997409412,0
710,0.02839999999999998,4.99972120164681,-0.21061772647374233,-0.21313240252314786,0
711,0.02844000000000002,4.99972120164681,-0.21949504950086995,-0.2220212412558598,0
712,0.02848000000000006,5.000378781950543,-0.2303451108431424,-0.23288277829415105,0
713,0.0285200000000001,5.000049991798719,-0.235276956858476,-0.2378260601516351,0
714,0.02855999999999992,5.000049991798719,-0.2411951720360831,-0.24375567147315708,0
715,0.02859999999999996,5.000049991798719,-0.24645580771209036,-0.24902766375040936,0
716,0.02864,5.000378781950543,-0.251716443352818,-0.25429961660520883,0
717,0.02868000000000004,5.000378781950543,-0.2586210275776379,-0.2612154788123529,0
718,0.02872000000000008,5.000049991798719,-0.26158013508389405,-0.26418582522453776,0
719,0.028759999999999897,5.000049991798719,-0.26684077062287465,-0.26945766074832783,0
720,0.028799999999999937,5.000049991798719,-0.27045745753533396,-0.27308550887967553,0
721,0.028839999999999977,5.000049991798719,-0.27604688273063216,-0.2786860566830597,0
722,0.028880000000000017,5.000378781950543,-0.278019621025263,-0.28066987913001096,0
723,0.028920000000000057,5.000049991798719,-0.2832802564531134,-0.28594156040936913,0
724,0.028960000000000097,5.000049991798719,-0.28919847126679404,-0.29187078292861296,0
725,0.028999999999999915,5.000378781950543,-0.2908424198181248,-0.29352570119434307,0
726,0.029039999999999955,5.000378781950543,-0.2921575786566751,-0.29485179191082067,0
727,0.029079999999999995,5.000378781950543,-0.2967606345739866,-0.29946574202418774,0
728,0.029120000000000035,4.99972120164681,-0.30037732134691947,-0.30309328546581044,0
729,0.029160000000000075,5.000378781950543,-0.2997197419349193,-0.30244652534954386,0
730,0.029200000000000115,5.000378781950543,-0.3030076389893151,-0.3057452044810285,0
731,0.029239999999999933,5.000707572102282,-0.30596674632628373,-0.30871505683065187,0
732,0.029279999999999973,5.000049991798719,-0.30761069484191084,-0.3103697134486079,0
733,0.029320000000000013,5.000049991798719,-0.3069531154360811,-0.30972280538878494,0
734,0.029360000000000053,5.000049991798719,-0.3069531154360811,-0.309733440132366,0
735,0.029400000000000093,4.99972120164681,-0.30761069484191084,-0.31040161783313763,0
736,0.02943999999999991,4.99972120164681,-0.3102410124596124,-0.3130424974508173,0
737,0.02947999999999995,5.000049991798719,-0.3082682742471789,-0.31108028509695956,0
738,0.02951999999999999,4.99972120164681,-0.30662432573295567,-0.309446826453355,0
739,0.02956000000000003,4.99972120164681,-0.31056980216119284,-0.3134027569175793,0
740,0.02960000000000007,5.000049991798719,-0.31056980216119284,-0.3134131752721388,0
741,0.02964000000000011,5.000049991798719,-0.30991222275789126,-0.3127659786950493,0
742,0.02967999999999993,5.000049991798719,-0.30662432573295567,-0.3094884291209325,0
743,0.02971999999999997,5.000378781950543,-0.304651587511256,-0.3075260031274839,0
744,0.02976000000000001,5.000378781950543,-0.30333642869398375,-0.3062211214685898,0
745,0.02980000000000005,4.99972120164681,-0.3049803772152234,-0.30787531223089715,0
746,0.02984000000000009,5.000049991798719,-0.3036652183985122,-0.306570360890371,0
747,0.029879999999999907,4.99972120164681,-0.3023500595795572,-0.3052653749350099,0
748,0.029919999999999947,4.999392411494816,-0.29807579340246787,-0.30100124716107624,0
749,0.029959999999999987,5.000049991798719,-0.2977470036955575,-0.3006825615488962,0
750,0.030000000000000027,5.000707572102282,-0.29544547574326624,-0.29839110353478104,0
751,0.030040000000000067,5.000378781950543,-0.29117120952797193,-0.29412687325283504,0
752,0.030080000000000107,4.99972120164681,-0.2914999992376794,-0.29446566504264354,0
753,0.030119999999999925,5.000707572102282,-0.28919847126679404,-0.2921741054500435,0
754,0.030159999999999965,5.000049991798719,-0.28919847126679404,-0.2921840402777939,0
755,0.030200000000000005,5.000049991798719,-0.28722573300058957,-0.2902212034399321,0
756,0.030240000000000045,5.000049991798719,-0.28295146673991745,-0.2859568053591667,0
757,0.030280000000000085,5.000049991798719,-0.27867720045569355,-0.2816923741572275,0
758,0.030319999999999903,5.000378781950543,-0.2799923593148844,-0.2830173351517355,0
759,0.030359999999999943,4.999392411494816,-0.27473172386476336,-0.2777664690404572,0
760,0.030399999999999983,5.000378781950543,-0.27275898556179023,-0.2758034674301819,0
761,0.030440000000000023,5.000707572102282,-0.2688135089408429,-0.2718676950059513,0
762,0.030480000000000063,4.99972120164681,-0.27440293414794864,-0.277466792063789,0
763,0.030520000000000103,5.000378781950543,-0.2697998780979539,-0.272873375668367,0
764,0.03055999999999992,5.000707572102282,-0.2661831911824424,-0.2692662963609219,0
765,0.03059999999999996,4.998734831190575,-0.2674983500627522,-0.27059103095227055,0
766,0.03064,5.000378781950543,-0.2612513453615303,-0.26435357021436234,0
767,0.03068000000000004,5.001036362253937,-0.2612513453615303,-0.26436308257907437,0
768,0.03072000000000008,4.998077250885994,-0.2586210275776379,-0.2617422457102343,0
769,0.0307599999999999,5.000049991798719,-0.256977078958209,-0.26010774670495596,0
770,0.03079999999999994,5.000049991798719,-0.2494149152643444,-0.2525550014729122,0
771,0.03083999999999998,5.000049991798719,-0.2507300741728716,-0.25387954783931477,0
772,0.03088000000000002,4.998406041038327,-0.24777096662558196,-0.2509297968941491,0
773,0.03092000000000006,4.998734831190575,-0.2494149152643444,-0.25258307142728564,0
774,0.0309600000000001,5.000707572102282,-0.2451406487963938,-0.24831810029376575,0
775,0.030999999999999917,5.000049991798719,-0.2444830693377189,-0.24766978575718754,0
776,0.031039999999999957,5.000049991798719,-0.24283912068862173,-0.24603507176526324,0
777,0.031079999999999997,4.99972120164681,-0.24053759257410445,-0.24374274819020397,0
778,0.031120000000000037,5.000707572102282,-0.2385648541848675,-0.2417791843697155,0
779,0.031160000000000077,5.000049991798719,-0.23363300819012922,-0.23685648311981594,0
780,0.031199999999999894,5.000378781950543,-0.23396179792407312,-0.23719438792128084,0
781,0.031239999999999934,5.000049991798719,-0.23198905951835075,-0.2352307350521442,0
782,0.031279999999999974,4.99972120164681,-0.22902995190050734,-0.2322806835861221,0
783,0.031320000000000014,4.99972120164681,-0.22475568532180157,-0.22801544392043022,0
784,0.031360000000000054,5.000049991798719,-0.2260708442715611,-0.22933960069013723,0
785,0.031400000000000095,4.99972120164681,-0.22146778793782235,-0.22474551322880243,0
786,0.03143999999999991,5.000049991798719,-0.2171935213182073,-0.22048018667935074,0
787,0.03147999999999995,5.000378781950543,-0.21949504950086995,-0.22279062627501736,0
788,0.03151999999999999,5.000378781950543,-0.21587836235368096,-0.21918282202853037,0
789,0.03156000000000003,5.000378781950543,-0.21489199312885277,-0.2182053073367336,0
790,0.03160000000000007,5.000049991798719,-0.21094651621726124,-0.21426865673490653,0
791,0.03164000000000011,5.000378781950543,-0.21127530596064387,-0.2146062447089604,0
792,0.03167999999999993,5.000378781950543,-0.20831619826529435,-0.21165590730913098,0
793,0.03171999999999997,5.000378781950543,-0.2046995110671092,-0.20804796261502317,0
794,0.03176000000000001,5.000378781950543,-0.20371314182838302,-0.20707030823240366,0
795,0.03180000000000005,5.000049991798719,-0.20404193157476108,-0.20740778533015153,0
796,0.03184000000000009,5.000049991798719,-0.20141161359992904,-0.20478612734494556,0
797,0.03187999999999991,5.000378781950543,-0.2020691930944527,-0.2054523396101014,0
798,0.03191999999999995,5.000049991798719,-0.1997676648612418,-0.20315941707103402,0
799,0.03195999999999999,4.99972120164681,-0.19647976737368184,-0.19988009834338705,0
800,0.03200000000000003,5.000707572102282,-0.1954933981247673,-0.19890228106216454,0
801,0.03204000000000007,5.000049991798719,-0.19417823912431548,-0.1975956473789428,0
802,0.03208000000000011,4.99972120164681,-0.1922055006195703,-0.19563140768247245,0
803,0.032119999999999926,4.999392411494816,-0.19187671086830504,-0.19531109037177916,0
804,0.032159999999999966,4.99972120164681,-0.19056155186188928,-0.19400437757922856,0
805,0.032200000000000006,4.99972120164681,-0.1899039723578687,-0.19335521820310425,0
806,0.032240000000000046,4.999392411494816,-0.1895751826056553,-0.19303482263329622,0
807,0.032280000000000086,4.99972120164681,-0.18595849532237463,-0.1894265037271464,0
808,0.032319999999999904,4.99972120164681,-0.18595849532237463,-0.1894348464389554,0
809,0.032359999999999944,5.000707572102282,-0.18628728507607667,-0.18977195337883143,0
810,0.032399999999999984,5.000378781950543,-0.18628728507607667,-0.1897802451787897,0
811,0.032440000000000024,5.000049991798719,-0.18168422851194627,-0.18518545516755108,0
812,0.032480000000000064,5.000049991798719,-0.18069785924475862,-0.18420732734506623,0
813,0.032520000000000104,4.99972120164681,-0.18069785924475862,-0.18421554382018376,0
814,0.03255999999999992,5.000378781950543,-0.1760948026484882,-0.17962067886777375,0
815,0.03259999999999996,4.999392411494816,-0.17477964361612697,-0.17831368678606613,0
816,0.03264,5.001036362253937,-0.17313569482264318,-0.17667788038780025,0
817,0.03268000000000004,5.000378781950543,-0.17477964361612697,-0.17832994715855574,0
818,0.03272000000000008,4.999392411494816,-0.17477964361612697,-0.1783380408550873,0
819,0.0327599999999999,5.000049991798719,-0.1695190074651277,-0.17308547425680013,0
820,0.03279999999999994,5.000049991798719,-0.16721747913823115,-0.17079199147542942,0
821,0.03283999999999998,5.000049991798719,-0.16688868937670803,-0.1704712233885904,0
822,0.03288000000000002,5.000049991798719,-0.1655735303292713,-0.16916406228104924,0
823,0.03292000000000006,4.99972120164681,-0.1583401555299606,-0.161938661822606,0
824,0.0329600000000001,5.000049991798719,-0.1583401555299606,-0.16194661269991098,0
825,0.03299999999999992,4.999392411494816,-0.15801136576481256,-0.16162575048367453,0
826,0.03303999999999996,5.000049991798719,-0.16623110985325845,-0.1698533989275092,0
827,0.03308,4.99972120164681,-0.15899773505985432,-0.16262790543054123,0
828,0.03312000000000004,5.000378781950543,-0.15801136576481256,-0.16164939450725055,0
829,0.03316000000000008,4.99972120164681,-0.15275072950422225,-0.15639659382768933,0
830,0.033199999999999896,4.99972120164681,-0.1550522578724497,-0.15870593511988082,0
831,0.033239999999999936,5.000049991798719,-0.15242193973679719,-0.15608340738447607,0
832,0.033279999999999976,5.000049991798719,-0.148476462517262,-0.15214569817451143,0
833,0.033320000000000016,5.000378781950543,-0.1501204113610753,-0.1537973927699458,0
834,0.033360000000000056,5.000049991798719,-0.14551735458997894,-0.14920205962493577,0
835,0.033400000000000096,5.000707572102282,-0.14781888297880097,-0.15151128964640903,0
836,0.033439999999999914,4.99972120164681,-0.14551735458997894,-0.1492174410285863,0
837,0.033479999999999954,4.99972120164681,-0.14617493413031024,-0.14988267860972976,0
838,0.033519999999999994,5.000378781950543,-0.14354461596578083,-0.1472599968869698,0
839,0.033560000000000034,5.000049991798719,-0.14091429779271097,-0.14463729368744876,0
840,0.033600000000000074,4.99972120164681,-0.14288703642331374,-0.14661762595387795,0
841,0.033640000000000114,4.99972120164681,-0.13894155915730816,-0.14267972111614885,0
842,0.03367999999999993,5.000049991798719,-0.14091429779271097,-0.14466001110212315,0
843,0.03371999999999997,4.99972120164681,-0.14354461596578083,-0.14729785967757542,0
844,0.03376000000000001,5.000049991798719,-0.13565366142097834,-0.13941441471615118,0
845,0.03380000000000005,4.99972120164681,-0.13170818411981328,-0.1354764263082128,0
846,0.03384000000000009,5.000049991798719,-0.126118757910398,-0.1298944684303911,0
847,0.03387999999999991,5.000049991798719,-0.12414601923909123,-0.12792917765722756,0
848,0.03391999999999995,5.001036362253937,-0.12546117835382642,-0.12925176436450128,0
849,0.03395999999999999,5.000049991798719,-0.13137939434385165,-0.1351773877689671,0
850,0.03400000000000003,4.99972120164681,-0.13072181479152978,-0.13452719558015422,0
851,0.03404000000000007,4.99972120164681,-0.1333521329976266,-0.13716488122565257,0
852,0.03408000000000011,4.99972120164681,-0.13006423523867633,-0.1338843311084762,0
853,0.03411999999999993,4.99972120164681,-0.12085812144297166,-0.12468554528305184,0
854,0.03415999999999997,5.000049991798719,-0.12414601923909123,-0.1279807515037447,0
855,0.03420000000000001,5.000049991798719,-0.12052933166263081,-0.1243713529315878,0
856,0.03424000000000005,5.000049991798719,-0.12151570100325589,-0.12536499198133277,0
857,0.03428000000000009,5.000049991798719,-0.12052933166263081,-0.12438587317937756,0
858,0.034319999999999906,4.99972120164681,-0.11724143385193893,-0.1211052068612845,0
859,0.034359999999999946,5.000378781950543,-0.12184449078319924,-0.12571547636309566,0
860,0.034399999999999986,5.000707572102282,-0.11757022363360382,-0.12144840298566875,0
861,0.034440000000000026,5.000049991798719,-0.11658385428821218,-0.12046920873736947,0
862,0.034480000000000066,5.000378781950543,-0.1136247462448944,-0.1175172572390134,0
863,0.034520000000000106,4.99972120164681,-0.1106656381908704,-0.1145652873004034,0
864,0.034559999999999924,5.000049991798719,-0.1103368484064295,-0.11424361732404764,0
865,0.034599999999999964,5.000049991798719,-0.11691264407014172,-0.12082651461036971,0
866,0.034640000000000004,4.99972120164681,-0.10672016076886852,-0.11064111486771766,0
867,0.034680000000000044,5.000049991798719,-0.10770653012615032,-0.11163454984074991,0
868,0.034720000000000084,5.000378781950543,-0.10672016076886852,-0.1106552282770956,0
869,0.0347599999999999,5.000707572102282,-0.10507621183742798,-0.10901830943753535,0
870,0.03479999999999994,4.999392411494816,-0.10178831396466272,-0.10573742407490569,0
871,0.03483999999999998,5.000049991798719,-0.10113073438852911,-0.10508683954679032,0
872,0.03488000000000002,5.000378781950543,-0.09850041607873007,-0.10246349894214295,0
873,0.03492000000000006,5.000049991798719,-0.10047315481186896,-0.10444319815643932,0
874,0.0349600000000001,4.99972120164681,-0.0971852569206733,-0.10116224364089946,0
875,0.03499999999999992,5.000049991798719,-0.09751404671038476,-0.10149795981887577,0
876,0.03503999999999996,4.99972120164681,-0.10014436502334141,-0.10413518765043371,0
877,0.03508,4.99972120164681,-0.0971852569206733,-0.10118297231404587,0
878,0.03512000000000004,5.000049991798719,-0.09850041607873007,-0.10250500760301859,0
879,0.03516000000000008,4.99972120164681,-0.0998155752346823,-0.10382702637109191,0
880,0.0351999999999999,5.000378781950543,-0.0863351937865197,-0.09035348813243652,0
881,0.03523999999999994,5.000049991798719,-0.07975939787816717,-0.08378451914676799,0
882,0.03527999999999998,5.000049991798719,-0.07778665909545869,-0.08181859111531964,0
883,0.03532000000000002,5.000378781950543,-0.0840336652245519,-0.08807239193925587,0
884,0.03536000000000006,5.000378781950543,-0.08765035296190492,-0.09169585842964739,0
885,0.0354000000000001,5.000378781950543,-0.08797914275542355,-0.09203141114861718,0
886,0.035439999999999916,5.000378781950543,-0.08929430192818714,-0.09335331753306489,0
887,0.035479999999999956,4.99972120164681,-0.08732156316825516,-0.09138731038447204,0
888,0.035519999999999996,5.000378781950543,-0.08699277337447438,-0.09106523671470768,0
889,0.035560000000000036,5.000049991798719,-0.08797914275542355,-0.0920583068449718,0
890,0.035600000000000076,5.000707572102282,-0.07844423869021762,-0.0825300882665983,0
891,0.035639999999999894,4.99972120164681,-0.07614271010627514,-0.08023523001882107,0
892,0.035679999999999934,5.000049991798719,-0.0791018182844538,-0.08320099349390808,0
893,0.035719999999999974,5.000049991798719,-0.07745786929788322,-0.08156368487599297,0
894,0.035760000000000014,5.000049991798719,-0.0840336652245519,-0.08814610635366024,0
895,0.035800000000000054,4.999392411494816,-0.08140334686016236,-0.08552239883279905,0
896,0.035840000000000094,5.000049991798719,-0.07416997131494572,-0.07829561953341635,0
897,0.03587999999999991,5.000378781950543,-0.07351239171679176,-0.07764462169276617,0
898,0.03591999999999995,5.000049991798719,-0.07647149990437309,-0.08061029725847257,0
899,0.03595999999999999,5.000049991798719,-0.06792296511142272,-0.07206831557280574,0
900,0.03600000000000003,5.000049991798719,-0.07022449371819571,-0.07437638312414233,0
901,0.03604000000000007,5.000049991798719,-0.07351239171679176,-0.0776708060122869,0
902,0.03608000000000011,5.000049991798719,-0.07121086311914367,-0.07537578835645925,0
903,0.03611999999999993,5.000049991798719,-0.07055328351864205,-0.0747247058569179,0
904,0.03615999999999997,5.000378781950543,-0.06562143649826817,-0.06979934220309172,0
905,0.03620000000000001,5.000378781950543,-0.06627901610267752,-0.07046339154566217,0
906,0.03624000000000005,5.000049991798719,-0.058716850620562686,-0.06290768227892518,0
907,0.03628000000000009,5.000378781950543,-0.05838806081543309,-0.06258533527156976,0
908,0.03631999999999991,5.000049991798719,-0.0626623282719858,-0.0668660322130479,0
909,0.03635999999999995,5.000049991798719,-0.06134716905692379,-0.06555728927439192,0
910,0.03639999999999999,4.999392411494816,-0.06167595886088427,-0.06589248225014133,0
911,0.03644000000000003,5.000049991798719,-0.059045640425562415,-0.06326855398546588,0
912,0.03648000000000007,5.000049991798719,-0.06233353846841526,-0.06656282930086821,0
913,0.03652000000000011,4.999392411494816,-0.054771372950441696,-0.05900702825996296,0
914,0.036559999999999926,4.999392411494816,-0.052469844300912574,-0.05671185139420579,0
915,0.036599999999999966,4.99972120164681,-0.0491819462191435,-0.05343029250466508,0
916,0.036640000000000006,4.99972120164681,-0.05312742391571186,-0.05738209690323792,0
917,0.036680000000000046,5.000049991798719,-0.04852436660123595,-0.052785353901427995,0
918,0.036720000000000086,5.000049991798719,-0.05378500352999273,-0.05805229285396227,0
919,0.036759999999999904,5.000049991798719,-0.04852436660123595,-0.052797945760108295,0
920,0.036799999999999944,5.000378781950543,-0.04326372963934923,-0.047543586543825955,0
921,0.036839999999999984,5.001036362253937,-0.04392130926139491,-0.04820743192131524,0
922,0.036880000000000024,5.000049991798719,-0.0445788888829237,-0.04887126540682449,0
923,0.036920000000000064,5.000049991798719,-0.04589404812443025,-0.05019266671910505,0
924,0.036960000000000104,4.99972120164681,-0.04392130926139491,-0.04822615823145193,0
925,0.03699999999999992,5.000049991798719,-0.03767430283110791,-0.04198537057852694,0
926,0.03703999999999996,4.999392411494816,-0.04589404812443025,-0.05021132314811819,0
927,0.03708,4.99972120164681,-0.04425009907222392,-0.04857356996756931,0
928,0.03712000000000004,5.000378781950543,-0.03800309264438971,-0.042332748102815926,0
929,0.03716000000000008,5.000707572102282,-0.03866067227056637,-0.04299650107908376,0
930,0.0371999999999999,5.000049991798719,-0.04030462133375036,-0.04464661237450718,0
931,0.03723999999999994,5.000049991798719,-0.03734551301769716,-0.04169365526752955,0
932,0.03727999999999998,4.99972120164681,-0.031756086169998185,-0.0361103686999793,0
933,0.03732000000000002,4.99972120164681,-0.03372882506167206,-0.038089237036660006,0
934,0.03736000000000006,5.001036362253937,-0.03274245561641449,-0.03710898629459941,0
935,0.0374000000000001,4.99972120164681,-0.031756086169998185,-0.03612872490244812,0
936,0.03743999999999992,5.000049991798719,-0.021892391642189743,-0.026271127872395772,0
937,0.03747999999999996,4.999392411494816,-0.026495449102891075,-0.03088027236631133,0
938,0.03752,4.999392411494816,-0.027481818555480722,-0.031872718479083545,0
939,0.03756000000000004,5.000049991798719,-0.024522710194243194,-0.028919676496049096,0
940,0.03760000000000008,5.000049991798719,-0.021234812002893247,-0.025637834491516326,0
941,0.037639999999999896,4.99972120164681,-0.022221181461645576,-0.02663025003583372,0
942,0.037679999999999936,5.000049991798719,-0.0228787611001723,-0.027293865748346358,0
943,0.037719999999999976,5.000049991798719,-0.017618123977595282,-0.0220392547773878,0
944,0.037760000000000016,5.000707572102282,-0.01597417487006185,-0.020401321987855103,0
945,0.037800000000000056,5.000049991798719,-0.020248442542986647,-0.02468159623344951,0
946,0.037840000000000096,4.99972120164681,-0.017946913798717698,-0.0223860644043416,0
947,0.037879999999999914,4.99972120164681,-0.018275703619711994,-0.0227208415703459,0
948,0.037919999999999954,5.000049991798719,-0.01564538504817102,-0.020096500860555783,0
949,0.037959999999999994,4.999392411494816,-0.01564538504817102,-0.020102469325472994,0
950,0.038000000000000034,5.000049991798719,-0.012686276645394332,-0.017149320076737917,0
951,0.038040000000000074,4.99972120164681,-0.014659015581730453,-0.019128008941730057,0
952,0.038080000000000114,5.000049991798719,-0.015316595226152155,-0.019791529374443173,0
953,0.03811999999999993,4.999392411494816,-0.01564538504817102,-0.020126250928940242,0
954,0.03815999999999997,5.000049991798719,-0.013672646114138112,-0.01815943475565357,0
955,0.03820000000000001,4.99972120164681,-0.013343856291351444,-0.017836558805491426,0
956,0.03824000000000005,4.99972120164681,-0.012028696998925656,-0.016527304580707086,0
957,0.03828000000000009,5.000707572102282,-0.010713537704454032,-0.01521804163156032,0
958,0.03831999999999991,4.99972120164681,-0.007425639459330238,-0.011936031091638294,0
959,0.03835999999999995,5.000049991798719,-0.00939837840793746,-0.013914649187044159,0
960,0.03839999999999999,4.99972120164681,-0.010713537704454032,-0.015235679153201842,0
961,0.03844000000000003,5.000378781950543,-0.007425639459330238,-0.011953643181332102,0
962,0.03848000000000007,4.99972120164681,-0.006110480157705198,-0.010644337836868856,0
963,0.03852000000000011,5.000049991798719,-0.0047953208540382625,-0.009335024254089747,0
964,0.03855999999999993,4.99972120164681,-0.005452900506126915,-0.009998441470133124,0
965,0.03859999999999997,5.000049991798719,-0.007425639459330238,-0.011977009909220737,0
966,0.03864000000000001,5.000049991798719,-0.0028225818947114484,-0.007379773830799352,0
967,0.03868000000000005,4.99972120164681,0.0007941062093044515,-0.0037688992911976693,0
968,0.03872000000000009,5.000378781950543,-0.007096849634115457,-0.0116656608546718,0
969,0.038759999999999906,4.99972120164681,-0.00348016154833046,-0.00805477072152297,0
970,0.038799999999999946,5.000707572102282,-0.005452900506126915,-0.010033299940997609,0
971,0.038839999999999986,4.998734831190575,-0.0031513717215847087,-0.00773755380315333,0
972,0.038880000000000026,4.99972120164681,-0.0028225818947114484,-0.007414539083492683,0
973,0.038920000000000066,5.000378781950543,0.0021092655236763236,-0.002488459307843832,0
974,0.038960000000000106,4.998077250885994,-0.002165002240582567,-0.006768487324895711,0
975,0.038999999999999924,5.001365152405508,0.0007941062093044515,-0.003815131811899214,0
976,0.039039999999999964,4.999063621342738,-0.0047953208540382625,-0.009410304569788613,0
977,0.039080000000000004,5.000049991798719,-0.002165002240582567,-0.0067857244816092455,0
978,0.039120000000000044,4.997748460733576,-0.0018362124133269458,-0.006462666082947266,0
979,0.039160000000000084,5.000049991798719,-0.0005210531030302584,-0.005153231176662998,0
980,0.0391999999999999,5.000707572102282,0.0030956350107915753,-0.0015422605138870615,0
981,0.03923999999999994,5.001365152405508,0.004739584158527918,9.597806464251013e-05,0
982,0.03927999999999998,5.002680313010939,0.0014516858662357995,-0.003197623985656789,0
983,0.03932000000000002,5.002351522859708,0.0024380553525874815,-0.0022169515162637765,0
984,0.03936000000000006,5.001365152405508,0.004410794328726292,-0.00024990288569712305,0
985,0.0394000000000001,4.999063621342738,0.0021092655236763236,-0.0025571154341053615,0
986,0.03943999999999992,4.99972120164681,0.006712323140007484,0.0020402649723987865,0
987,0.03947999999999996,5.000049991798719,0.003753214669504526,-0.0009245142425920172,0
988,0.03952,5.000707572102282,0.00506837398845672,0.00038498072951037576,0
989,0.03956000000000004,5.000049991798719,0.010000221452637598,0.005311170177269758,0
990,0.03960000000000008,5.000049991798719,0.008356272294735026,0.0036615692666556177,0
991,0.0396399999999999,4.99972120164681,0.009013851957515154,0.004313503374207467,0
992,0.03967999999999994,5.000378781950543,0.007369902801517392,0.00266391479473016,0
993,0.03971999999999998,5.000049991798719,0.008356272294735026,0.0036446509309750463,0
994,0.03976000000000002,5.000049991798719,0.012301750279031881,0.007584501560056661,0
995,0.03980000000000006,5.000049991798719,0.011315380781244458,0.00659251064455546,0
996,0.0398400000000001,4.99972120164681,0.009013851957515154,0.004285366276851471,0
997,0.039879999999999916,5.000049991798719,0.009671431620803153,0.0049373362066350845,0
998,0.039919999999999956,5.000049991798719,0.011644170613713423,0.006904471213736635,0
999,0.039959999999999996,5.000049991798719,0.010986590948902406,0.006241293248531871,0
1000,0.040000000000000036,4.99972120164681,0.009671431620803153,0.0049205412436670315,0
1001,0.040040000000000076,5.000378781950543,0.009671431620803153,0.004914954129236981,0
1002,0.040080000000000116,4.99972120164681,0.011972960446309217,0.007210901341850429,0
1003,0.040119999999999933,5.000049991798719,0.011315380781244458,0.006547745505127156,0
1004,0.040159999999999973,5.000378781950543,0.015260858779241576,0.010487652712891343,0
1005,0.040200000000000014,5.000049991798719,0.008027482463535476,0.003248710929064036,0
1006,0.040240000000000054,5.000378781950543,0.01328811977796078,0.008503788038660809,0
1007,0.040280000000000094,4.99972120164681,0.014603279111640999,0.009813392372481078,0
1008,0.04031999999999991,5.000049991798719,0.015589648613231935,0.010794212021351862,0
1009,0.04035999999999995,4.99972120164681,0.015589648613231935,0.010788667258438384,0
1010,0.04039999999999999,5.000049991798719,0.019206336795484613,0.014399815710747055,0
1011,0.04044000000000003,5.000378781950543,0.015589648613231935,0.01077759277517859,0
1012,0.04048000000000007,5.000049991798719,0.013945699444547363,0.009128113773961694,0
1013,0.04052000000000011,4.99972120164681,0.016576018115963126,0.011752907478280283,0
1014,0.04055999999999993,5.000049991798719,0.01756238761983417,0.012733756825637932,0
1015,0.04059999999999997,4.99972120164681,0.017233597785083862,0.012399451590603544,0
1016,0.04064000000000001,4.99972120164681,0.016247228281592724,0.011407571389200372,0
1017,0.04068000000000005,5.000378781950543,0.017233597785083862,0.012388434843791457,0
1018,0.04072000000000009,5.000378781950543,0.012630540111881347,0.007779875717838197,0
1019,0.04075999999999991,5.000049991798719,0.009342641789095676,0.004486480486085909,0
1020,0.04079999999999995,5.000049991798719,0.010986590948902406,0.006124937228842747,0
1021,0.04083999999999999,5.000049991798719,0.018877546960101396,0.014010405263539,0
1022,0.04088000000000003,5.000049991798719,0.02085028597429857,0.015977660690908974,0
1023,0.04092000000000007,5.000049991798719,0.013945699444547363,0.009067594913632543,0
1024,0.04096000000000011,4.99972120164681,0.004410794328726292,-0.00047278516028717577,0
1025,0.040999999999999925,5.000378781950543,0.025124553854007567,0.020235503646944764,0
1026,0.041039999999999965,5.000049991798719,0.02315181482994949,0.01825729809600765,0
1027,0.041080000000000005,5.000049991798719,0.023480604666976643,0.01858062554894535,0
1028,0.041120000000000045,5.000378781950543,0.016247228281592724,0.01134179087437917,0
1029,0.041160000000000085,4.99972120164681,0.016247228281592724,0.011336336632720073,0
1030,0.0411999999999999,5.000049991798719,0.016247228281592724,0.011330886391698353,0
1031,0.04123999999999994,5.000049991798719,0.008027482463535476,0.0031056942868694926,0
1032,0.04127999999999998,5.000378781950543,0.0024380553525874815,-0.0024891752024890634,0
1033,0.04132000000000002,5.000049991798719,0.0004653163810297567,-0.004467352689487364,0
1034,0.04136000000000006,5.000378781950543,0.011644170613713423,0.006706066845832553,0
1035,0.0414000000000001,5.000707572102282,0.012301750279031881,0.007358215587468936,0
1036,0.04143999999999992,5.000049991798719,0.02216544531962629,0.01721648343416554,0
1037,0.04147999999999996,5.000049991798719,0.023809394504130166,0.01885500911115616,0
1038,0.04152,5.000049991798719,0.008356272294735026,0.0033964670377302497,0
1039,0.04156000000000004,4.99972120164681,0.0076986926324629085,0.002733471112505159,0
1040,0.04160000000000008,5.000378781950543,0.0264397132059056,0.021469078982165116,0
1041,0.0416399999999999,5.000049991798719,0.021836655483104705,0.016860612073341233,0
1042,0.04167999999999994,5.000049991798719,0.01295932994485767,0.007977880825916966,0
1043,0.04171999999999998,5.000378781950543,0.016904807950460177,0.011917956558770593,0
1044,0.04176000000000002,5.000378781950543,0.02315181482994949,0.01815956456201831,0
1045,0.04180000000000006,4.99972120164681,0.030713981113518377,0.025716335326427822,0
1046,0.0418400000000001,4.999392411494816,0.019206336795484613,0.014203298807387896,0
1047,0.04187999999999992,4.99972120164681,0.02315181482994949,0.018143387920566467,0
1048,0.04191999999999996,4.99972120164681,0.02315181482994949,0.018138002241062212,0
1049,0.04196,5.000049991798719,0.012630540111881347,0.007611345047829676,0
1050,0.04200000000000004,5.000707572102282,0.01065780111668721,0.005633226744864245,0
1051,0.04204000000000008,5.000378781950543,0.02019270630239349,0.015162755753740903,0
1052,0.042079999999999895,5.000049991798719,0.03334429983648583,0.028308976205989156,0
1053,0.042119999999999935,5.000378781950543,0.022494235156274286,0.017453541503457987,0
1054,0.042159999999999975,5.000378781950543,0.013945699444547363,0.008899638793969253,0
1055,0.042200000000000015,4.99972120164681,-0.00019226327513760522,-0.0052436879333918884,0
1056,0.042240000000000055,5.000378781950543,0.022494235156274286,0.01743744944645148,0
1057,0.042280000000000095,5.000049991798719,0.023809394504130166,0.018747250665362508,0
1058,0.04231999999999991,5.000049991798719,0.03597461856751347,0.030907119489434143,0
1059,0.04235999999999995,5.000378781950543,0.03663219825152894,0.03155934679127401,0
1060,0.04239999999999999,5.000378781950543,0.020521496138282788,0.015443295120984024,0
1061,0.04244000000000003,5.000049991798719,0.04287920527475757,0.03779565749403527,0
1062,0.04248000000000007,5.000049991798719,0.029070031915759978,0.023981140134215567,0
1063,0.04252000000000011,5.000049991798719,0.026110923367741706,0.021016690317449488,0
1064,0.04255999999999993,5.000049991798719,0.0264397132059056,0.021340141588904363,0
1065,0.04259999999999997,5.000049991798719,0.030056401434036775,0.02495149392282106,0
1066,0.04264000000000001,5.000049991798719,0.030713981113518377,0.025603740351529583,0
1067,0.04268000000000005,5.000049991798719,0.027426082721154613,0.022310511323271484,0
1068,0.04272000000000009,5.000378781950543,0.025124553854007567,0.020003654407036484,0
1069,0.04275999999999991,5.000378781950543,0.023480604666976643,0.01835437973014134,0
1070,0.04279999999999995,5.000049991798719,0.018877546960101396,0.013745999065532158,0
1071,0.04283999999999999,5.001036362253937,0.016576018115963126,0.011439149769185655,0
1072,0.04288000000000003,5.000378781950543,0.019206336795484613,0.014064150475908532,0
1073,0.04292000000000007,5.000049991798719,0.021507865646709548,0.0163603638081163,0
1074,0.04296000000000011,5.000378781950543,0.024138184341410046,0.01898536941244064,0
1075,0.04299999999999993,5.000378781950543,0.021836655483104705,0.016678529867746705,0
1076,0.04303999999999997,5.000049991798719,0.01953512663099438,0.014371692709068712,0
1077,0.04308000000000001,4.99972120164681,0.018548757124844717,0.013380017252491869,0
1078,0.04312000000000005,5.000049991798719,0.019863916466630674,0.014689872976796747,0
1079,0.04316000000000009,4.99972120164681,0.016576018115963126,0.011396673318885053,0
1080,0.043199999999999905,4.99972120164681,0.01789117745471111,0.012706533638401324,0
1081,0.043239999999999945,4.99972120164681,0.02019270630239349,0.015002765733124201,0
1082,0.043279999999999985,5.000049991798719,0.018877546960101396,0.01368231188288796,0
1083,0.043320000000000025,5.000378781950543,0.02315181482994949,0.017951287469033406,0
1084,0.043360000000000065,5.000049991798719,0.022823024993048696,0.017617207552380082,0
1085,0.043400000000000105,4.99972120164681,0.030713981113518377,0.025502875777237893,0
1086,0.04343999999999992,5.000049991798719,0.015589648613231935,0.01037325754615212,0
1087,0.04347999999999996,5.000049991798719,-0.01301506646843685,-0.01823674112035091,0
1088,0.04352,5.001036362253937,0.019863916466630674,0.014636960357480314,0
1089,0.04356000000000004,4.99972120164681,-0.001178632758433426,-0.00641086821510943,0
1090,0.04360000000000008,4.99972120164681,0.010000221452637598,0.004762708740738378,0
1091,0.0436399999999999,5.000049991798719,0.04222162558596615,0.0369788376942167,0
1092,0.04367999999999994,5.000378781950543,0.030713981113518377,0.025465920100840103,0
1093,0.04371999999999998,5.000378781950543,0.03268672015498804,0.027433388064328004,0
1094,0.04376000000000002,5.000049991798719,0.04024888652260587,0.03499028538141334,0
1095,0.04380000000000006,5.000049991798719,0.03465945920099257,0.029395591021694742,0
1096,0.0438400000000001,4.999392411494816,0.011972960446309217,0.006703827226786571,0
1097,0.04387999999999992,4.999392411494816,0.01821996728971463,0.01294557101377547,0
1098,0.04391999999999996,5.000378781950543,0.022823024993048696,0.017543367630903195,0
1099,0.04396,5.000049991798719,0.030713981113518377,0.025429064622251946,0
1100,0.04400000000000004,5.000378781950543,0.0313715607935042,0.026081387117550245,0
1101,0.04404000000000008,4.999392411494816,0.019863916466630674,0.01456848753824272,0
1102,0.0440799999999999,5.000049991798719,0.015918438447348998,0.010617756187071975,0
1103,0.04411999999999994,4.99972120164681,0.015260858779241576,0.009954925096382558,0
1104,0.04415999999999998,5.000049991798719,0.028083662398618273,0.02277247919171653,0
1105,0.04420000000000002,4.99972120164681,0.03268672015498804,0.027370289312284468,0
1106,0.04424000000000006,5.000378781950543,0.023809394504130166,0.018487717904035833,0
1107,0.0442800000000001,5.000378781950543,0.019863916466630674,0.014536995978194356,0
1108,0.044319999999999915,4.99972120164681,0.01032901128459894,0.004996848767974044,0
1109,0.044359999999999955,4.99972120164681,0.01065780111668721,0.005320398423597925,0
1110,0.044399999999999995,5.000049991798719,0.03268672015498804,0.02734407912919483,0
1111,0.044440000000000035,5.000049991798719,0.03564582872569445,0.030297951203458684,0
1112,0.044480000000000075,5.000049991798719,0.04978379203736312,0.04443067984791106,0
1113,0.044520000000000115,5.000378781950543,0.02216544531962629,0.016807100285612483,0
1114,0.04455999999999993,5.000049991798719,0.03663219825152894,0.031268622189498815,0
1115,0.04459999999999997,4.999392411494816,0.024466974178816228,0.019098168899668186,0
1116,0.04464000000000001,4.99972120164681,0.04452315449893275,0.03914912180837918,0
1117,0.04468000000000005,5.000707572102282,0.01295932994485767,0.007580071643885314,0
1118,0.04472000000000009,4.999392411494816,0.03400187951848738,0.028617397403816816,0
1119,0.04475999999999991,5.000049991798719,0.0392625169926218,0.03387281285716637,0
1120,0.04479999999999995,4.99972120164681,0.020521496138282788,0.015126571771606458,0
1121,0.04483999999999999,5.000049991798719,0.01295932994485767,0.0075591871336323085,0
1122,0.04488000000000003,5.000707572102282,0.04222162558596615,0.03681626611442805,0
1123,0.04492000000000007,5.000049991798719,0.03959130683582415,0.03418073248622991,0
1124,0.04496000000000011,5.000378781950543,0.040577676366185214,0.035161888919266804,0
1125,0.04499999999999993,5.000378781950543,0.02216544531962629,0.016744446555045145,0
1126,0.04503999999999997,4.99972120164681,0.02315181482994949,0.017725606526749663,0
1127,0.04508000000000001,4.99972120164681,0.027754872559823354,0.022323456496883866,0
1128,0.04512000000000005,4.99972120164681,0.015589648613231935,0.010153026569718268,0
1129,0.04516000000000009,5.000049991798719,0.019206336795484613,0.013764510551299153,0
1130,0.04519999999999991,5.000049991798719,0.02216544531962629,0.016718416655858034,0
1131,0.04523999999999995,5.000049991798719,0.024795764016348754,0.01934353471572202,0
1132,0.04527999999999999,5.000049991798719,0.014274489278030808,0.00881706112535309,0
1133,0.04532000000000003,5.000378781950543,0.01821996728971463,0.012757342072323541,0
1134,0.04536000000000007,5.000378781950543,0.023480604666976643,0.018012784175186106,0
1135,0.04540000000000011,5.000378781950543,0.028412452237539368,0.022939438265084794,0
1136,0.045439999999999925,5.000049991798719,0.024138184341410046,0.018659978685892607,0
1137,0.045479999999999965,5.000049991798719,0.016576018115963126,0.011092622579292943,0
1138,0.045520000000000005,5.000049991798719,0.031700350633686175,0.02621176702252473,0
1139,0.045560000000000045,5.000049991798719,0.02216544531962629,0.01667167544582772,0
1140,0.045600000000000085,5.000049991798719,0.030385191273714543,0.024886236954765925,0
1141,0.0456399999999999,4.999392411494816,0.024795764016348754,0.019291627075809434,0
1142,0.04567999999999994,5.000049991798719,0.02085028597429857,0.015340968242238545,0
1143,0.04571999999999998,5.000378781950543,0.02315181482994949,0.01763731814338687,0
1144,0.04576000000000002,5.000378781950543,0.025782133529704057,0.02026245973304168,0
1145,0.04580000000000006,5.000378781950543,0.029727611594485073,0.024202762539946063,0
1146,0.0458400000000001,4.99972120164681,0.02315181482994949,0.017621792378011966,0
1147,0.04587999999999992,5.000049991798719,0.024795764016348754,0.019260570036179515,0
1148,0.04591999999999996,5.000378781950543,0.01789117745471111,0.012350813824598218,0
1149,0.04596,4.999392411494816,0.02117907581044083,0.015633544418225176,0
1150,0.04600000000000004,5.000049991798719,0.010000221452637598,0.0044495241961433896,0
1151,0.04604000000000008,5.000378781950543,0.0313715607935042,0.02581569958096848,0
1152,0.0460799999999999,5.000049991798719,0.0264397132059056,0.02087868995640696,0
1153,0.04611999999999994,5.000378781950543,0.025782133529704057,0.020215950173590076,0
1154,0.04615999999999998,5.000049991798719,0.024138184341410046,0.0185668428207238,0
1155,0.04620000000000002,4.999392411494816,0.021836655483104705,0.016260157752010167,0
1156,0.04624000000000006,5.000378781950543,0.030385191273714543,0.02480353929892086,0
1157,0.0462800000000001,5.000049991798719,0.027426082721154613,0.021839278482339325,0
1158,0.04631999999999992,5.000049991798719,0.033015509995673945,0.027423555485905304,0
1159,0.04635999999999996,5.000378781950543,0.025124553854007567,0.019527451080165757,0
1160,0.0464,4.99972120164681,0.026110923367741706,0.020508674350938748,0
1161,0.04644000000000004,5.000378781950543,0.019863916466630674,0.014256523242629313,0
1162,0.04648000000000008,5.000049991798719,0.03268672015498804,0.027074184774619467,0
1163,0.046519999999999895,5.000378781950543,0.028412452237539368,0.022794776767120058,0
1164,0.046559999999999935,5.000378781950543,0.029070031915759978,0.023447218437507293,0
1165,0.046599999999999975,4.99972120164681,0.029070031915759978,0.02344208252820673,0
1166,0.046640000000000015,4.999392411494816,0.025453343691792682,0.019820260510200735,0
1167,0.046680000000000055,5.000049991798719,0.0264397132059056,0.020801498362678195,0
1168,0.046720000000000095,5.000049991798719,0.025453343691792682,0.019809999336885577,0
1169,0.04675999999999991,5.000378781950543,0.02676850304419573,0.021120031345527243,0
1170,0.04679999999999995,5.000049991798719,0.0264397132059056,0.02078611634976544,0
1171,0.04683999999999999,4.999392411494816,0.02676850304419573,0.021109783235652643,0
1172,0.04688000000000003,5.000049991798719,0.028083662398618273,0.022419821861926606,0
1173,0.04692000000000007,5.000378781950543,0.028083662398618273,0.02241470337762326,0
1174,0.04696000000000011,5.000378781950543,0.022823024993048696,0.017148949751590592,0
1175,0.04699999999999993,5.000049991798719,0.023480604666976643,0.017801415489293752,0
1176,0.04703999999999997,4.999063621342738,0.024795764016348754,0.019111463207479376,0
1177,0.04708000000000001,4.99972120164681,0.025124553854007567,0.019435143740190806,0
1178,0.04712000000000005,5.000707572102282,0.028083662398618273,0.022389145327693732,0
1179,0.04716000000000009,5.000378781950543,0.025124553854007567,0.019424932195813815,0
1180,0.04719999999999991,4.99972120164681,0.027097292882612076,0.02139256902938392,0
1181,0.04723999999999995,5.000707572102282,0.025782133529704057,0.02007230989646861,0
1182,0.04727999999999999,4.999392411494816,0.029070031915759978,0.023355110940731463,0
1183,0.04732000000000003,4.998406041038327,0.023809394504130166,0.018089378649103566,0
1184,0.04736000000000007,5.001365152405508,0.025453343691792682,0.019728235442536046,0
1185,0.04740000000000011,4.99972120164681,0.02315181482994949,0.017421616696595053,0
1186,0.04743999999999993,5.002680313010939,0.028412452237539368,0.02267716675497331,0
1187,0.04747999999999997,4.998734831190575,0.021836655483104705,0.01609628521135574,0
1188,0.04752000000000001,5.000378781950543,0.029727611594485073,0.023982159119111654,0
1189,0.04756000000000005,5.000378781950543,0.027426082721154613,0.021675550653630908,0
1190,0.04760000000000009,4.997748460733576,0.025453343691792682,0.019697734669893267,0
1191,0.047639999999999905,4.99972120164681,0.023480604666976643,0.017719921355159977,0
1192,0.047679999999999945,5.000049991798719,0.02216544531962629,0.01639969040941689,0
1193,0.047719999999999985,4.99972120164681,0.02216544531962629,0.016394621529995657,0
1194,0.047760000000000025,5.000378781950543,0.024466974178816228,0.018691084256562462,0
1195,0.047800000000000065,5.000378781950543,0.024795764016348754,0.019014810736474784,0
1196,0.047840000000000105,4.999392411494816,0.024795764016348754,0.0190097501824392,0
1197,0.04787999999999992,5.000049991798719,0.024795764016348754,0.019004692460945508,0
1198,0.04791999999999996,5.000378781950543,0.023480604666976643,0.017684478251953066,0
1199,0.04796,5.000049991798719,0.019863916466630674,0.014062738083564438,0
1200,0.04800000000000004,5.000049991798719,0.02019270630239349,0.014386478872938022,0
1201,0.04804000000000008,5.000378781950543,0.019863916466630674,0.014052642942885205,0
1202,0.0480799999999999,5.000378781950543,0.021507865646709548,0.015691549011587827,0
1203,0.04811999999999994,5.000049991798719,0.022494235156274286,0.01667287842387196,0
1204,0.04815999999999998,5.000049991798719,0.01821996728971463,0.01239357350567526,0
1205,0.04820000000000002,4.99972120164681,0.021507865646709548,0.01567643788858924,0
1206,0.04824000000000006,4.999392411494816,0.02315181482994949,0.017315356207580238,0
1207,0.0482800000000001,4.99972120164681,0.020521496138282788,0.014680009794134478,0
1208,0.04831999999999992,5.000049991798719,0.022494235156274286,0.016647724265815372,0
1209,0.04835999999999996,5.000378781950543,0.024138184341410046,0.018286652113466847,0
1210,0.0484,4.99972120164681,0.024795764016348754,0.018939213693463405,0
1211,0.04844000000000004,5.000049991798719,0.019206336795484613,0.013344771654271479,0
1212,0.04848000000000008,4.99972120164681,0.020521496138282788,0.014654919489783584,0
1213,0.0485199999999999,5.000049991798719,0.02315181482994949,0.01728023001998691,0
1214,0.04855999999999994,5.000049991798719,0.02216544531962629,0.016288855729156268,0
1215,0.04859999999999998,4.99972120164681,0.0264397132059056,0.02055812225136817,0
1216,0.04864000000000002,5.000378781950543,0.0264397132059056,0.02055312433957425,0
1217,0.04868000000000006,4.999392411494816,0.027754872559823354,0.021863289270152998,0
1218,0.0487200000000001,5.000378781950543,0.025782133529704057,0.019885559341677544,0
1219,0.048759999999999915,4.99972120164681,0.022823024993048696,0.016921463468521927,0
1220,0.048799999999999955,5.000378781950543,0.0264397132059056,0.02053316794395114,0
1221,0.048839999999999995,5.000378781950543,0.0264397132059056,0.02052818784315487,0
1222,0.048880000000000035,5.000049991798719,0.028412452237539368,0.022495950448523327,0
1223,0.048920000000000075,5.000049991798719,0.025124553854007567,0.01920307935149599,0
1224,0.048960000000000115,5.000378781950543,0.027426082721154613,0.021499639256493775,0
1225,0.04899999999999993,5.000049991798719,0.02676850304419573,0.020837094407644658,0
1226,0.04903999999999997,4.99972120164681,0.02315181482994949,0.01721544485101474,0
1227,0.04908000000000001,5.000049991798719,0.023480604666976643,0.017539277214745533,0
1228,0.04912000000000005,5.000378781950543,0.024795764016348754,0.01884948299982115,0
1229,0.04916000000000009,5.000049991798719,0.025124553854007567,0.019173323222426118,0
1230,0.04919999999999991,4.99972120164681,0.023809394504130166,0.017853218247309094,0
1231,0.04923999999999995,5.000049991798719,0.022823024993048696,0.016861907141701098,0
1232,0.04927999999999999,5.000378781950543,0.024466974178816228,0.018500918804879894,0
1233,0.04932000000000003,5.000378781950543,0.02019270630239349,0.014221717519355227,0
1234,0.04936000000000007,5.000049991798719,0.022823024993048696,0.01684710695626709,0
1235,0.04940000000000011,5.000049991798719,0.025124553854007567,0.019143710761034265,0
1236,0.04943999999999993,5.000049991798719,0.025124553854007567,0.01913878994490704,0
1237,0.04947999999999997,5.000049991798719,0.025453343691792682,0.019462663249460457,0
1238,0.04952000000000001,5.000707572102282,0.029070031915759978,0.02307443926623939,0
1239,0.04956000000000005,5.000378781950543,0.030713981113518377,0.02471348062631574,0
1240,0.04960000000000009,4.99972120164681,0.027097292882612076,0.02109188897101034,0
1241,0.049639999999999906,4.99972120164681,0.028083662398618273,0.022073359519989184,0
1242,0.049679999999999946,5.000049991798719,0.030056401434036775,0.024041204090151487,0
1243,0.049719999999999986,5.000378781950543,0.023809394504130166,0.01778930724146833,0
1244,0.049760000000000026,5.000378781950543,0.027754872559823354,0.021729899969880614,0
1245,0.049800000000000066,4.999392411494816,0.02676850304419573,0.020738649763789762,0
1246,0.049840000000000106,5.000049991798719,0.024466974178816228,0.018432244890391164,0
1247,0.049879999999999924,5.000049991798719,0.029398821755059465,0.023359221186988785,0
1248,0.049919999999999964,4.99972120164681,0.025453343691792682,0.019408876618680543,0
1249,0.049960000000000004,5.000378781950543,0.025453343691792682,0.019404014934773693,0
1250,0.050000000000000044,5.000049991798719,0.026110923367741706,0.020056737794779206,0
1251,0.050040000000000084,5.000049991798719,0.024795764016348754,0.018736726542531487,0
1252,0.0500799999999999,5.000378781950543,0.02216544531962629,0.016101560907463536,0
1253,0.05011999999999994,5.000049991798719,0.02117907581044083,0.015110349470155951,0
1254,0.05015999999999998,5.000049991798719,0.025453343691792682,0.01937978048161507,0
1255,0.05020000000000002,4.99972120164681,0.02117907581044083,0.015100680836896335,0
1256,0.05024000000000006,4.99972120164681,0.016576018115963126,0.010492796534162793,0
1257,0.0502800000000001,5.000378781950543,0.017233597785083862,0.011145554799011173,0
1258,0.05031999999999992,4.99972120164681,0.024466974178816228,0.018374115041612717,0
1259,0.05035999999999996,5.000378781950543,0.017233597785083862,0.01113592779933312,0
1260,0.0504,5.000378781950543,0.023809394504130166,0.017706919022140215,0
1261,0.05044000000000004,5.000378781950543,0.02676850304419573,0.020661227468279846,0
1262,0.05048000000000008,4.99972120164681,0.034988249042434,0.028876178825189863,0
1263,0.0505199999999999,5.000707572102282,0.03202914047399413,0.02591228111858136,0
1264,0.05055999999999994,5.000049991798719,0.02676850304419573,0.020646860104611833,0
1265,0.05059999999999998,4.99972120164681,0.024138184341410046,0.018011763422764768,0
1266,0.05064000000000002,5.000378781950543,0.02117907581044083,0.01504788256922888,0
1267,0.05068000000000006,5.000378781950543,0.019206336795484613,0.013070376939856737,0
1268,0.0507200000000001,4.99972120164681,0.02085028597429857,0.014709565264330995,0
1269,0.050759999999999916,5.000378781950543,0.021836655483104705,0.015691179731066925,0
1270,0.050799999999999956,5.000378781950543,0.021836655483104705,0.015686430553725633,0
1271,0.050839999999999996,5.000049991798719,0.02676850304419573,0.020613534854928242,0
1272,0.050880000000000036,4.99972120164681,0.02676850304419573,0.020608797565479595,0
1273,0.050920000000000076,4.99972120164681,0.025782133529704057,0.019617696785227144,0
1274,0.050960000000000116,4.99972120164681,0.03860493730659416,0.03243577537355198,0
1275,0.050999999999999934,5.000378781950543,0.03400187951848738,0.02782799852784102,0
1276,0.051039999999999974,5.000049991798719,0.029727611594485073,0.023549017731217384,0
1277,0.051080000000000014,4.99972120164681,0.015918438447348998,0.009735137950719118,0
1278,0.051120000000000054,5.000049991798719,-0.0005210531030302584,-0.006709053939234013,0
1279,0.051160000000000094,4.999063621342738,0.014932068945377922,0.008739374118168972,0
1280,0.05119999999999991,5.000378781950543,0.014603279111640999,0.008405896697025501,0
1281,0.05123999999999995,5.000707572102282,0.028412452237539368,0.02221038869439372,0
1282,0.05127999999999999,5.000049991798719,0.06918239323698341,0.06297565507970793,0
1283,0.05132000000000003,5.000378781950543,0.06556570484479929,0.05935429864356268,0
1284,0.05136000000000007,4.99972120164681,0.03564582872569445,0.02942976110667655,0
1285,0.05140000000000011,5.000378781950543,0.025782133529704057,0.019561411175336843,0
1286,0.05143999999999993,5.000049991798719,0.03827614746376892,0.03205077711297602,0
1287,0.05147999999999997,4.99972120164681,0.026110923367741706,0.01988091181617611,0
1288,0.05152000000000001,4.999392411494816,0.037289777936047624,0.031055132036327687,0
1289,0.05156000000000005,4.99972120164681,0.016576018115963126,0.010336744777906899,0
1290,0.05160000000000009,5.000049991798719,0.004739584158527918,-0.0015043096506142384,0
1291,0.05163999999999991,5.000049991798719,0.04748226311035131,0.041233755855036816,0
1292,0.05167999999999995,5.000378781950543,0.04978379203736312,0.043530678418682515,0
1293,0.05171999999999999,5.000378781950543,0.04353678496405114,0.03727907212293076,0
1294,0.05176000000000003,5.000049991798719,0.020521496138282788,0.01425919127399496,0
1295,0.05180000000000007,4.99972120164681,0.025453343691792682,0.019186454062179864,0
1296,0.05184000000000011,5.000378781950543,0.03268672015498804,0.02641525307668534,0
1297,0.051879999999999926,4.999392411494816,0.0313715607935042,0.025095523642160066,0
1298,0.051919999999999966,5.000378781950543,0.025124553854007567,0.018843954064502746,0
1299,0.051960000000000006,5.000049991798719,0.024466974178816228,0.018181819245480995,0
1300,0.052000000000000046,4.999392411494816,0.022823024993048696,0.01653332246987837,0
1301,0.052040000000000086,4.99972120164681,0.024466974178816228,0.018172731679684955,0
1302,0.052079999999999904,5.000378781950543,0.026110923367741706,0.01981214856661453,0
1303,0.052119999999999944,4.99972120164681,0.033673089677423634,0.027369790308566812,0
1304,0.052159999999999984,4.99972120164681,0.036303408409458296,0.029995592267647878,0
1305,0.052200000000000024,5.000049991798719,0.04222162558596615,0.0359093005266948,0
1306,0.052240000000000064,5.000049991798719,0.05438684990979273,0.04807002384947482,0
1307,0.052280000000000104,5.000049991798719,0.06490812513874837,0.0585868060549234,0
1308,0.05231999999999992,5.000378781950543,0.07279908164422239,0.06647327757575662,0
1309,0.05235999999999996,5.000378781950543,0.06852481352819326,0.062194532575479695,0
1310,0.0524,4.99972120164681,0.0672096541121064,0.06087490443726291,0
1311,0.05244000000000004,5.000049991798719,0.07115513236633955,0.06481592219340541,0
1312,0.05248000000000008,5.000378781950543,0.08003245850379062,0.07368879611892132,0
1313,0.0525199999999999,5.000707572102282,0.08463551653658133,0.07828741028824146,0
1314,0.05255999999999994,5.000049991798719,0.08595067597897872,0.07959813427813305,0
1315,0.05259999999999998,5.000049991798719,0.09121131376835284,0.08485434508865541,0
1316,0.05264000000000002,5.000049991798719,0.09680074145419928,0.09043935433218098,0
1317,0.05268000000000006,4.99972120164681,0.09844469078034762,0.09207889381560205,0
1318,0.0527200000000001,4.999392411494816,0.09581437185998914,0.0894441737153567,0
1319,0.05275999999999992,4.99972120164681,0.10074621984212842,0.09437162924387868,0
1320,0.05279999999999996,4.99972120164681,0.10600685772026662,0.09962788345827901,0
1321,0.05284,5.000049991798719,0.10502048811571825,0.09863713904366087,0
1322,0.05288000000000004,5.000049991798719,0.10797959693268015,0.10159188196818703,0
1323,0.05292000000000008,5.000049991798719,0.11258265511216159,0.1061905832370079,0
1324,0.052959999999999896,5.000378781950543,0.11389781459642795,0.10750139485670362,0
1325,0.052999999999999936,5.000378781950543,0.10929475641007817,0.10289399791635917,0
1326,0.053039999999999976,5.001036362253937,0.12145998166897555,0.11505489359649322,0
1327,0.053080000000000016,5.000049991798719,0.1250766702917519,0.11866726188056047,0
1328,0.053120000000000056,5.000049991798719,0.12409030066589298,0.11767658122103508,0
1329,0.053160000000000096,5.000378781950543,0.1234327209159308,0.11701469980760139,0
1330,0.053199999999999914,5.000378781950543,0.13066609819235642,0.12424378485606465,0
1331,0.053239999999999954,5.000378781950543,0.1355979463691857,0.12917135030591498,0
1332,0.053279999999999994,5.000378781950543,0.13263883745980184,0.12620796823616792,0
1333,0.053320000000000034,5.000378781950543,0.13263883745980184,0.1262037047082093,0
1334,0.053360000000000074,5.000049991798719,0.1346115767316295,0.12817219015042636,0
1335,0.053400000000000114,4.999392411494816,0.13329641721659097,0.12685278657022173,0
1336,0.05343999999999993,5.000049991798719,0.13526915648987867,0.12882129160903544,0
1337,0.05347999999999997,5.000378781950543,0.13263883745980184,0.12618674824157355,0
1338,0.05352000000000001,5.000049991798719,0.12606303991870926,0.119606736326729,0
1339,0.05356000000000005,4.99972120164681,0.1257342500429348,0.11927374210752531,0
1340,0.05360000000000009,4.99972120164681,0.12145998166897555,0.1149952794872931,0
1341,0.05363999999999991,5.000049991798719,0.12540546016728232,0.11893657390345863,0
1342,0.05367999999999995,5.000378781950543,0.11948724242641957,0.1130141823117021,0
1343,0.05371999999999999,5.000049991798719,0.10995233614951355,0.10347511248240421,0
1344,0.05376000000000003,4.99972120164681,0.11159628550024885,0.10511490864664068,0
1345,0.05380000000000007,5.000049991798719,0.11324023485404966,0.10675471524736205,0
1346,0.05384000000000011,5.000378781950543,0.10765080706363755,0.10116115520494974,0
1347,0.05387999999999993,5.000378781950543,0.1112674956298565,0.10477372208803915,0
1348,0.05391999999999997,5.000049991798719,0.1181720829338278,0.11167419834567258,0
1349,0.05396000000000001,5.000049991798719,0.11981603229987327,0.11331404737022038,0
1350,0.05400000000000005,4.99972120164681,0.12409030066589298,0.11758422616775659,0
1351,0.05404000000000009,4.999392411494816,0.12244635129190345,0.11593619806659525,0
1352,0.054079999999999906,4.99972120164681,0.12211756141747197,0.11560334037472275,0
1353,0.054119999999999946,5.000049991798719,0.12080240192096793,0.11428412403904714,0
1354,0.054159999999999986,4.999392411494816,0.11291144498304434,0.10638912130887795,0
1355,0.054200000000000026,4.99972120164681,0.10370532864470776,0.09717897029399411,0
1356,0.054240000000000066,5.000378781950543,0.10107500970858954,0.09454462786591329,0
1357,0.054280000000000106,4.99972120164681,0.09055373404295111,0.08401933996189516,0
1358,0.054319999999999924,4.99972120164681,0.08101882808020172,0.074480433083457,0
1359,0.054359999999999964,4.99972120164681,0.07049755265605667,0.06395516813553012,0
1360,0.054400000000000004,5.000049991798719,0.059647487508292976,0.05310112492521364,0
1361,0.054440000000000044,5.000049991798719,0.054058060060948765,0.04750773094597199,0
1362,0.054480000000000084,5.000049991798719,0.03959130683582415,0.03303702278913389,0
1363,0.0545199999999999,5.000049991798719,0.030713981113518377,0.024155753804927488,0
1364,0.05455999999999994,5.000378781950543,0.021507865646709548,0.014945706815758339,0
1365,0.05459999999999998,5.000049991798719,0.012630540111881347,0.006064461567934137,0
1366,0.05464000000000002,5.000049991798719,-0.0015074225859438989,-0.008077408963604107,0
1367,0.05468000000000006,5.000049991798719,-0.007425639459330238,-0.013999521721408892,0
1368,0.0547200000000001,5.000378781950543,-0.01860449344057817,-0.02518225956767793,0
1369,0.05475999999999992,5.000378781950543,-0.026495449102891075,-0.0330770870054225,0
1370,0.05479999999999996,5.000049991798719,-0.029454557457189598,-0.036040054975283856,0
1371,0.05484,5.000049991798719,-0.03438640469119987,-0.04097574959462327,0
1372,0.05488000000000004,4.99972120164681,-0.04063341114600001,-0.047226591134070725,0
1373,0.05492000000000008,5.000378781950543,-0.04786678698281073,-0.054463789684317365,0
1374,0.0549599999999999,5.001036362253937,-0.0498395258365333,-0.05644033880965543,0
1375,0.05499999999999994,5.000049991798719,-0.054771372950441696,-0.06137598368267236,0
1376,0.05503999999999998,5.000049991798719,-0.05838806081543309,-0.06499645672350321,0
1377,0.05508000000000002,5.000378781950543,-0.06134716905692379,-0.06795933748672894,0
1378,0.05512000000000006,5.000378781950543,-0.06890933451510713,-0.07552526274163585,0
1379,0.0551600000000001,5.000378781950543,-0.06956691411691203,-0.07618658934417596,0
1380,0.055199999999999916,5.000378781950543,-0.0791018182844538,-0.08572522764541957,0
1381,0.055239999999999956,4.99972120164681,-0.08896551213519292,-0.09559264269171586,0
1382,0.055279999999999996,5.000049991798719,-0.09159583047547391,-0.09822666921823378,0
1383,0.055320000000000036,5.000378781950543,-0.09948678544589158,-0.10612131929433005,0
1384,0.055360000000000076,4.99972120164681,-0.10441863226392899,-0.1110568480661894,0
1385,0.055400000000000116,5.000707572102282,-0.10672016076886852,-0.11336204530173774,0
1386,0.055439999999999934,4.999063621342738,-0.11296716667825839,-0.11961270664711077,0
1387,0.055479999999999974,5.000378781950543,-0.11230958711109378,-0.11895876914983702,0
1388,0.055520000000000014,5.000378781950543,-0.11461111559385707,-0.12126392626487997,0
1389,0.055560000000000054,5.001365152405508,-0.11691264407014172,-0.12356906986426375,0
1390,0.055600000000000094,5.001036362253937,-0.11526869515917111,-0.12192872249559397,0
1391,0.05563999999999991,5.000707572102282,-0.11625506450615032,-0.12291867973241088,0
1392,0.05567999999999995,5.000707572102282,-0.10803531991164712,-0.11470250930357268,0
1393,0.05571999999999999,4.999063621342738,-0.10441863226392899,-0.11108938202559437,0
1394,0.05576000000000003,5.001693942556992,-0.09652767734085597,-0.10320197360454261,0
1395,0.05580000000000007,4.999063621342738,-0.0971852569206733,-0.10386308574682995,0
1396,0.05584000000000011,5.000049991798719,-0.08732156316825516,-0.0940029105454605,0
1397,0.05587999999999993,4.998734831190575,-0.08962309172105022,-0.09630794356597733,0
1398,0.05591999999999997,4.99972120164681,-0.08304729583888733,-0.08973563799627018,0
1399,0.05596000000000001,5.000049991798719,-0.08469124481434036,-0.09138306305694233,0
1400,0.05600000000000005,5.000378781950543,-0.0840336652245519,-0.09072894525313571,0
1401,0.05604000000000009,5.000378781950543,-0.0820609264520449,-0.08875965389534482,0
1402,0.05607999999999991,5.000707572102282,-0.08238971624778989,-0.08909187666248575,0
