,seconds,Trig,EMG_amplitude,EMG_amplitude_filter,peaks
0,0.0,5.000049991798719,0.07904608892849513,-0.047201802267607264,0
1,4.0000000000040004e-05,5.000049991798719,0.07904608892849513,-0.047273816803237736,0
2,8.000000000008001e-05,5.000707572102282,0.08299156723636938,-0.051291406876972,0
3,0.00011999999999989797,5.000378781950543,0.08989615431804343,-0.05826820260907728,0
4,0.00015999999999993797,5.000378781950543,0.07904608892849513,-0.0474904424077379,0
5,0.00019999999999997797,4.99972120164681,0.08463551653658133,-0.05315227139388371,0
6,0.00024000000000001798,5.001036362253937,0.09975985024348359,-0.06834910231963776,0
7,0.000280000000000058,5.000049991798719,0.09121131376835284,-0.059873158553962504,0
8,0.000320000000000098,5.001036362253937,0.07805971935431567,-0.04679425198866804,0
9,0.00035999999999991594,5.001036362253937,0.08595067597897872,-0.054757991248918315,0
10,0.00039999999999995595,5.000049991798719,0.08858099486971066,-0.05746118720851516,0
11,0.00043999999999999595,4.99972120164681,0.09252647322063803,-0.0614796367068958,0
12,0.00048000000000003595,5.000049991798719,0.09219768335738154,-0.06122391171387115,0
13,0.000520000000000076,5.000378781950543,0.09121131376835284,-0.060310700360924376,0
14,0.0005599999999998939,5.000378781950543,0.09943106037751487,-0.06860369821397316,0
15,0.0005999999999999339,5.000378781950543,0.10534927798377816,-0.074595259712768,0
16,0.0006399999999999739,5.000049991798719,0.11389781459642795,-0.08321723250632097,0
17,0.0006800000000000139,5.000049991798719,0.1112674956298565,-0.08066044164764016,0
18,0.0007200000000000539,5.000378781950543,0.11915845255308817,-0.0886250182432566,0
19,0.0007600000000000939,5.000378781950543,0.1250766702917519,-0.09461694685519843,0
20,0.0007999999999999119,4.99972120164681,0.12639182979460575,-0.09600590806751767,0
21,0.0008399999999999519,5.000707572102282,0.11389781459642795,-0.08358578504918314,0
22,0.0008799999999999919,5.000378781950543,0.10732201719471773,-0.07708396993078324,0
23,0.0009200000000000319,5.000707572102282,0.12277514116645709,-0.0926111659212898,0
24,0.0009600000000000719,5.000707572102282,0.12672061967062423,-0.09663080581057343,0
25,0.001000000000000112,5.000049991798719,0.12080240192096793,-0.09078683844217984,0
26,0.0010399999999999299,5.000378781950543,0.11455539433929632,-0.08461416986662078,0
27,0.0010799999999999699,5.000049991798719,0.10600685772026662,-0.07614006050616587,0
28,0.0011200000000000099,5.000378781950543,0.11619934369861068,-0.08640706162207024,0
29,0.0011600000000000499,5.000378781950543,0.10863717667113368,-0.07891949723657528,0
30,0.0012000000000000899,4.999392411494816,0.10107500970858954,-0.07143202004478608,0
31,0.0012399999999999078,5.000049991798719,0.10863717667113368,-0.07906896353012643,0
32,0.0012799999999999478,4.99972120164681,0.13494036661069325,-0.10544701636671092,0
33,0.0013199999999999878,5.000707572102282,0.07641577006649763,-0.04699736871487773,0
34,0.0013600000000000279,5.000378781950543,0.10271895904274086,-0.07337559219885278,0
35,0.0014000000000000679,5.000049991798719,0.09186889349424851,-0.06260064639241923,0
36,0.0014400000000001079,5.000378781950543,0.06523691499171154,-0.03604387248415321,0
37,0.0014799999999999258,5.000378781950543,0.06063385706157101,-0.03151610361731063,0
38,0.0015199999999999658,5.000707572102282,0.04287920527475757,-0.013836824978569046,0
39,0.0015600000000000058,5.000049991798719,0.031042770953448276,-0.002075847504786704,0
40,0.0016000000000000458,5.000707572102282,0.025124553854007567,0.003766829434054278,0
41,0.0016400000000000858,5.000707572102282,0.011972960446309217,0.016842799755523545,0
42,0.0016799999999999038,5.000049991798719,0.00013652655288240445,0.028603528025594217,0
43,0.0017199999999999438,5.000378781950543,0.0030956350107915753,0.025568631796760784,0
44,0.0017599999999999838,5.000049991798719,-0.021234812002893247,0.049823209282566394,0
45,0.0018000000000000238,5.000378781950543,-0.023865130556999917,0.05237757694350406,0
46,0.0018400000000000638,5.000049991798719,-0.01564538504817102,0.04408179956893096,0
47,0.0018800000000001038,5.001693942556992,-0.0113711173519455,0.03973141942814783,0
48,0.0019199999999999218,4.998406041038327,-0.014001435936796827,0.04228554538443484,0
49,0.0019599999999999618,4.998406041038327,0.0030956350107915753,0.025112202020124756,0
50,0.0020000000000000018,5.002022732708393,0.010986590948902406,0.017144894274024443,0
51,0.0020400000000000418,4.999063621342738,0.008356272294735026,0.019698782126862206,0
52,0.002080000000000082,5.001036362253937,0.011315380781244458,0.016663164244646395,0
53,0.0021199999999998997,5.000378781950543,0.008027482463535476,0.01987447497226888,0
54,0.0021599999999999397,5.000049991798719,0.02085028597429857,0.006975006078066642,0
55,0.0021999999999999797,4.999063621342738,0.024466974178816228,0.0032815750988130325,0
56,0.0022400000000000198,5.002022732708393,0.023809394504130166,0.003862335010548213,0
57,0.0022800000000000598,5.000378781950543,0.031700350633686175,-0.004105517466068288,0
58,0.0023200000000000998,4.999063621342738,0.03893372714954513,-0.011415866507971061,0
59,0.0023599999999999177,4.99972120164681,0.029070031915759978,-0.0016292195730683058,0
60,0.0023999999999999577,4.999392411494816,0.036303408409458296,-0.00893971973132687,0
61,0.0024399999999999977,5.000378781950543,0.03827614746376892,-0.010989657407701525,0
62,0.0024800000000000377,5.000378781950543,0.030056401434036775,-0.0028471845483522794,0
63,0.0025200000000000777,4.99972120164681,0.024466974178816228,0.002664895398359693,0
64,0.0025599999999998957,5.000378781950543,0.028412452237539368,-0.001358003695798752,0
65,0.0025999999999999357,5.000378781950543,0.033015509995673945,-0.006038555804093227,0
66,0.0026399999999999757,5.000707572102282,0.03696098809372539,-0.010061601153826375,0
67,0.0026800000000000157,5.000707572102282,0.03433066935967702,-0.00750892215878074,0
68,0.0027200000000000557,5.000378781950543,0.03564582872569445,-0.008901793335925785,0
69,0.0027600000000000957,5.000378781950543,0.031042770953448276,-0.00437651903074323,0
70,0.0027999999999999137,5.000049991798719,0.03433066935967702,-0.00774227214279272,0
71,0.0028399999999999537,5.000707572102282,0.03202914047399413,-0.00551866878352154,0
72,0.0028799999999999937,5.000049991798719,0.019863916466630674,0.006568559295990005,0
73,0.0029200000000000337,5.000378781950543,0.025453343691792682,0.0009010661616685352,0
74,0.0029600000000000737,5.000378781950543,0.015918438447348998,0.010357835936757008,0
75,0.0029999999999998916,5.000707572102282,0.016576018115963126,0.009622051660680253,0
76,0.0030399999999999316,4.99972120164681,0.02019270630239349,0.005927090151741886,0
77,0.0030799999999999716,5.000378781950543,0.01953512663099438,0.006506328209620556,0
78,0.0031200000000000117,5.001036362253937,0.016247228281592724,0.009715817079490416,0
79,0.0031600000000000517,5.000378781950543,0.013616909611190692,0.012267658830315775,0
80,0.0032000000000000917,5.000378781950543,0.020521496138282788,0.005284528370531241,0
81,0.0032399999999999096,5.000049991798719,0.013616909611190692,0.012110504379704061,0
82,0.0032799999999999496,5.000049991798719,0.014932068945377922,0.010716668371216716,0
83,0.0033199999999999896,5.000049991798719,0.016247228281592724,0.009322766634121116,0
84,0.0033600000000000296,5.000378781950543,0.02019270630239349,0.0052984809166102854,0
85,0.0034000000000000696,5.000378781950543,0.02117907581044083,0.00423323884772343,0
86,0.0034400000000001096,4.999392411494816,0.02117907581044083,0.004154301855399872,0
87,0.0034799999999999276,5.000707572102282,0.025124553854007567,0.00012982282161358785,0
88,0.0035199999999999676,5.001036362253937,0.0264397132059056,-0.0012644010838721333,0
89,0.0035600000000000076,4.99972120164681,0.003424424840084442,0.021671759600457936,0
90,0.0036000000000000476,5.000378781950543,0.01953512663099438,0.00548186743655223,0
91,0.0036400000000000876,5.000049991798719,0.020521496138282788,0.004416245302093103,0
92,0.0036799999999999056,5.000378781950543,0.02085028597429857,0.004008141022989534,0
93,0.0037199999999999456,5.000707572102282,0.011972960446309217,0.012806090731157044,0
94,0.0037599999999999856,5.000378781950543,0.013945699444547363,0.010753914976468132,0
95,0.0038000000000000256,5.000049991798719,0.021836655483104705,0.0027834616858553214,0
96,0.0038400000000000656,5.000707572102282,0.016247228281592724,0.008293331581647426,0
97,0.0038800000000001056,5.000707572102282,0.021507865646709548,0.002953077299999673,0
98,0.0039199999999999235,5.000378781950543,0.02085028597429857,0.0035309808888320353,0
99,0.0039599999999999635,5.000049991798719,0.023480604666976643,0.0008209273901979876,0
100,0.0040000000000000036,5.000378781950543,0.027754872559823354,-0.0035331335854078966,0
101,0.0040400000000000436,5.000049991798719,0.0264397132059056,-0.00229782514457761,0
102,0.0040800000000000836,5.000049991798719,0.027097292882612076,-0.003035313117327316,0
103,0.0041199999999999015,5.000378781950543,0.028741242076586612,-0.004759227542033836,0
104,0.0041599999999999415,5.000049991798719,0.0264397132059056,-0.0025377203876150965,0
105,0.0041999999999999815,5.000378781950543,0.028741242076586612,-0.004919327010041937,0
106,0.0042400000000000215,4.999392411494816,0.022494235156274286,0.0012475465739728922,0
107,0.0042800000000000615,5.000049991798719,0.019206336795484613,0.004455256465727357,0
108,0.0043200000000001015,5.000378781950543,0.022494235156274286,0.0010871149558575113,0
109,0.0043599999999999195,5.000378781950543,0.024138184341410046,-0.000637131604835011,0
110,0.0043999999999999595,5.000049991798719,0.030056401434036775,-0.006635699845054353,0
111,0.0044399999999999995,5.000049991798719,0.024795764016348754,-0.0014554668916849263,0
112,0.0044800000000000395,5.000707572102282,0.030385191273714543,-0.007125351473919513,0
113,0.0045200000000000795,4.999063621342738,0.029070031915759978,-0.005890701844345531,0
114,0.0045599999999998975,5.000378781950543,0.031042770953448276,-0.007944002556028413,0
115,0.0045999999999999375,5.000049991798719,0.030056401434036775,-0.007038246197471648,0
116,0.0046399999999999775,5.000049991798719,0.023809394504130166,-0.0008719034556733014,0
117,0.0046800000000000175,5.000049991798719,0.027426082721154613,-0.004569306427603488,0
118,0.0047200000000000575,5.000378781950543,0.020521496138282788,0.0022545152948671814,0
119,0.0047600000000000975,5.000378781950543,0.014932068945377922,0.007763127984020266,0
120,0.0047999999999999154,5.000378781950543,0.01065780111668721,0.011956532128592677,0
121,0.0048399999999999554,5.000707572102282,0.005725953648695714,0.016807467195919426,0
122,0.0048799999999999955,5.000707572102282,0.0014516858662357995,0.021000774325820745,0
123,0.0049200000000000355,5.000049991798719,-0.0028225818947114484,0.025194033647797286,0
124,0.0049600000000000755,4.999392411494816,-0.0047953208540382625,0.02708571684804876,0
125,0.004999999999999893,4.99972120164681,-0.008412008934208556,0.03062130231616885,0
126,0.005039999999999933,5.000049991798719,-0.007754429284417372,0.029882573669301304,0
127,0.005079999999999973,5.000049991798719,-0.012028696998925656,0.0340756464704712,0
128,0.005120000000000013,4.99972120164681,-0.0166317545134594,0.03859746362498072,0
129,0.005160000000000053,5.000049991798719,-0.01860449344057817,0.040488917215774266,0
130,0.0052000000000000934,5.000049991798719,-0.024522710194243194,0.04632580412800297,0
131,0.005239999999999911,5.000378781950543,-0.026166659285104213,0.04788837934430798,0
132,0.005279999999999951,5.000378781950543,-0.022549971280973066,0.044190273905290546,0
133,0.005319999999999991,4.99972120164681,-0.017946913798717698,0.03950575590140247,0
134,0.005360000000000031,5.000049991798719,-0.012028696998925656,0.03350603596760608,0
135,0.005400000000000071,5.000378781950543,-0.006439269983302923,0.027835063680769455,0
136,0.005440000000000111,5.000707572102282,-0.0018362124133269458,0.02315041917831591,0
137,0.005479999999999929,5.000049991798719,0.004739584158527918,0.01649299448944589,0
138,0.005519999999999969,4.99972120164681,0.009671431620803153,0.011479478203120615,0
139,0.005560000000000009,5.000378781950543,0.02676850304419573,-0.0056993022730811825,0
140,0.005600000000000049,5.000378781950543,0.0313715607935042,-0.010384108824913014,0
141,0.005640000000000089,5.000378781950543,0.04255041543029908,-0.021644751534134584,0
142,0.005679999999999907,5.000378781950543,0.050112581884580176,-0.029288744850172854,0
143,0.005719999999999947,4.99972120164681,0.05701716870504489,-0.036275196840394014,0
144,0.005759999999999987,5.000049991798719,0.05471563975876172,-0.034055570889780604,0
145,0.005800000000000027,5.000049991798719,0.05570200930641887,-0.035123880776183884,0
146,0.005840000000000067,5.000049991798719,0.05997627735926084,-0.03948012602726411,0
147,0.005880000000000107,5.000378781950543,0.05833232810566989,-0.037918190347075796,0
148,0.005919999999999925,5.000049991798719,0.05307169051516736,-0.03273960222007266,0
149,0.005959999999999965,5.000049991798719,0.05767474840510757,-0.03742474497780543,0
150,0.006000000000000005,5.000049991798719,0.04879742249646346,-0.028629538854711097,0
151,0.006040000000000045,4.99972120164681,0.04978379203736312,-0.029698062611653205,0
152,0.006080000000000085,5.000049991798719,0.04912621234330475,-0.02912267107614061,0
153,0.006119999999999903,5.000049991798719,0.05537321945707481,-0.03545189980224939,0
154,0.006159999999999943,5.000707572102282,0.06162022661597208,-0.04178116153785058,0
155,0.006199999999999983,5.000378781950543,0.06622328455134852,-0.04646650652415496,0
156,0.006240000000000023,5.000707572102282,0.08069003822127407,-0.06101557922838161,0
157,0.006280000000000063,5.000049991798719,0.07937487878680298,-0.05978277032002813,0
158,0.006320000000000103,5.000378781950543,0.0813476179392533,-0.06183789099815407,0
159,0.006359999999999921,5.000049991798719,0.07838850921225148,-0.058961194303429464,0
160,0.006399999999999961,5.000378781950543,0.0770733497812526,-0.05772847691765888,0
161,0.006440000000000001,5.000049991798719,0.08101882808020172,-0.061756426780446634,0
162,0.006480000000000041,5.000049991798719,0.06852481352819326,-0.04934491281586008,0
163,0.006520000000000081,4.99972120164681,0.06392175558060653,-0.04482438398356904,0
164,0.006559999999999899,4.99972120164681,0.05833232810566989,-0.0393175136554139,0
165,0.006599999999999939,5.000049991798719,0.04781105295669137,-0.028878823187640228,0
166,0.006639999999999979,4.99972120164681,0.045838313880531376,-0.026988695829375405,0
167,0.006680000000000019,5.000049991798719,0.011315380781244458,0.007451599013725607,0
168,0.006720000000000059,5.000378781950543,0.031700350633686175,-0.013016035134130431,0
169,0.006760000000000099,5.000049991798719,0.0264397132059056,-0.007838087541271719,0
170,0.006799999999999917,5.000378781950543,0.01328811977796078,0.005230791012619345,0
171,0.006839999999999957,5.000378781950543,0.005397163818512657,0.013039007559908132,0
172,0.006879999999999997,5.000049991798719,0.003753214669504526,0.014600193260324336,0
173,0.006920000000000037,5.000049991798719,-0.008412008934208556,0.02668262988132846,0
174,0.006960000000000077,5.000049991798719,-0.020248442542986647,0.03843625347623464,0
175,0.006999999999999895,5.000049991798719,-0.029125767640559533,0.047230746032361146,0
176,0.007039999999999935,5.000378781950543,-0.04260615001678679,0.06062827384378629,0
177,0.007079999999999975,4.99972120164681,-0.05115468506975916,0.06909393281344564,0
178,0.007120000000000015,4.99972120164681,-0.07055328351864205,0.08840963416597136,0
179,0.007160000000000055,4.999392411494816,-0.08370487542946127,0.10147830847347385,0
180,0.007200000000000095,5.000049991798719,-0.10540500162397977,0.12309549706441411,0
181,0.007239999999999913,4.99972120164681,-0.13137939434385165,0.14898693268775356,0
182,0.007279999999999953,5.000049991798719,-0.15307951927151348,0.17060408153384127,0
183,0.007319999999999993,5.000049991798719,-0.18135543875635207,0.19879700646057782,0
184,0.007360000000000033,4.99972120164681,-0.21094651621726124,0.228305071395968,0
185,0.007400000000000073,4.999392411494816,-0.25368918170898375,0.2709647069044587,0
186,0.007440000000000113,5.000378781950543,-0.2977470036955575,0.31493948196038024,0
187,0.007479999999999931,5.000378781950543,-0.33621539845039383,0.3533248133480202,0
188,0.007519999999999971,5.000378781950543,-0.37830047767019714,0.39532681327553826,0
189,0.007560000000000011,4.99972120164681,-0.4174264476504326,0.4343696885504301,0
190,0.007600000000000051,5.000049991798719,-0.452935729552405,0.4697958608466013,0
191,0.007640000000000091,5.000049991798719,-0.4798964794852818,0.4966734867863851,0
192,0.007679999999999909,5.000049991798719,-0.5101451245687585,0.5268389940032049,0
193,0.007719999999999949,5.000378781950543,-0.5357907139781967,0.5524014321867059,0
194,0.007759999999999989,4.99972120164681,-0.5548605106397978,0.5713880647779269,0
195,0.007800000000000029,5.000378781950543,-0.5620938816546617,0.5785382593933528,0
196,0.00784000000000007,4.99972120164681,-0.5706424109415031,0.5870036004676272,0
197,0.00788000000000011,5.000049991798719,-0.5726151484546945,0.5888931384715913,1
198,0.007919999999999927,5.000049991798719,-0.5620938816546617,0.5782886613826748,0
199,0.007959999999999967,4.99972120164681,-0.5620938816546617,0.5782054408316688,0
200,0.008000000000000007,4.99972120164681,-0.5515726146997985,0.567600943581737,0
201,0.008040000000000047,4.999392411494816,-0.5469695603584757,0.5629146497198645,0
202,0.008080000000000087,5.000049991798719,-0.5371058723848923,0.5529677135193491,0
203,0.008119999999999905,4.99972120164681,-0.5259270258514974,0.541705610572251,0
204,0.008159999999999945,5.000378781950543,-0.5167209168117076,0.5324162374521049,0
205,0.008199999999999985,5.000378781950543,-0.501267804946259,0.5168798543602674,0
206,0.008240000000000025,5.000378781950543,-0.4838419550020877,0.4993707265647921,0
207,0.008280000000000065,5.000049991798719,-0.4693752113365407,0.4848206989446354,0
208,0.008320000000000105,5.000049991798719,-0.44866146422843867,0.46402366230071446,0
209,0.008359999999999923,4.99972120164681,-0.42630376828523975,0.44158267176306504,0
210,0.008399999999999963,5.000378781950543,-0.4101930752031284,0.42538867955092696,0
211,0.008440000000000003,5.000049991798719,-0.385533850425297,0.4006461516310207,0
212,0.008480000000000043,5.000049991798719,-0.3572579383521592,0.372286932927757,0
213,0.008520000000000083,5.000378781950543,-0.33029718399834984,0.3452428689802307,0
214,0.008559999999999901,5.000378781950543,-0.30596674632628373,0.3208291192757748,0
215,0.008599999999999941,4.99972120164681,-0.28163630788574023,0.29641536688954007,0
216,0.008639999999999981,5.000049991798719,-0.25401797143452803,0.26871371510515507,0
217,0.008680000000000021,4.999392411494816,-0.23790727472068857,0.25251970219692466,0
218,0.008720000000000061,4.998734831190575,-0.2171935213182073,0.23172263226553652,0
219,0.008760000000000101,4.99972120164681,-0.1872736543363711,0.20171944894741373,0
220,0.008799999999999919,5.000378781950543,-0.16458716104228271,0.17894964003722436,0
221,0.008839999999999959,4.998734831190575,-0.1369688205171084,0.15124798514412413,0
222,0.008879999999999999,4.999392411494816,-0.11132321775935598,0.1255190697950292,0
223,0.008920000000000039,4.999392411494816,-0.07449876111382696,0.08861130286356296,0
224,0.008960000000000079,5.000378781950543,-0.03372882506167206,0.04775805936010648,0
225,0.008999999999999897,4.999392411494816,0.009671431620803153,0.004274498590599113,0
226,0.009039999999999937,4.999392411494816,0.06359296572814185,-0.04973033570947019,0
227,0.009079999999999977,4.99972120164681,0.12310393104113287,-0.10932459679046466,0
228,0.009120000000000017,5.000707572102282,0.18951948821056797,-0.17582344477236156,0
229,0.009160000000000057,5.000378781950543,0.2519895711816465,-0.23837681306916236,0
230,0.009200000000000097,4.99972120164681,0.32169303714792036,-0.308163558342843,0
231,0.009239999999999915,5.000049991798719,0.38745102859561575,-0.37400482254768036,0
232,0.009279999999999955,5.000049991798719,0.4463044347070119,-0.4329414943336367,0
233,0.009319999999999995,5.000049991798719,0.5018699442252522,-0.4885902619111746,0
234,0.009360000000000035,5.000378781950543,0.5426399058023309,-0.5294434733992499,0
235,0.009400000000000075,5.000707572102282,0.5748613281849961,-0.5617481370112207,0
236,0.009439999999999893,4.99972120164681,0.5975478404566106,-0.5845178812967117,0
237,0.009479999999999933,5.000707572102282,0.6018221109391033,-0.5888753740435726,0
238,0.009519999999999973,5.000049991798719,0.6074115415960156,-0.5945480166809295,0
239,0.009560000000000013,5.000049991798719,0.6057675913997554,-0.592987267646445,0
240,0.009600000000000053,5.000378781950543,0.5922871998864417,-0.5795900659411681,0
241,0.009640000000000093,5.000049991798719,0.5853826091778197,-0.5727686531514531,0
242,0.009679999999999911,5.000378781950543,0.5788068085449735,-0.5662760180126793,0
243,0.009719999999999951,5.000707572102282,0.5679567375907285,-0.5555090995916584,0
244,0.009759999999999991,5.000378781950543,0.5646688373237414,-0.5523043383607286,0
245,0.009800000000000031,5.000378781950543,0.558421826844964,-0.5461404528842234,0
246,0.009840000000000071,5.000049991798719,0.5643400472976111,-0.5521417837684454,0
247,0.009880000000000111,5.000049991798719,0.5679567375907285,-0.555841569385238,0
248,0.009919999999999929,4.99972120164681,0.5788068085449735,-0.5667747200177714,0
249,0.009959999999999969,4.999392411494816,0.6014933209013771,-0.5895442958693091,0
250,0.010000000000000009,4.99972120164681,0.6202343532138705,-0.6083683749557398,0
251,0.010040000000000049,5.000049991798719,0.6462087669611563,-0.6344258182174521,0
252,0.010080000000000089,5.000049991798719,0.6705392310371672,-0.6588392940097986,0
253,0.010119999999999907,5.000378781950543,0.6951984857208838,-0.6835815420729177,0
254,0.010159999999999947,4.99972120164681,0.7224880615456358,-0.7109540924010392,0
255,0.010199999999999987,4.999392411494816,0.7468185273007879,-0.7353675132441776,0
256,0.010240000000000027,4.998734831190575,0.7724641539340643,-0.76109607501046,0
257,0.010280000000000067,4.998406041038327,0.7997537316243609,-0.7884685673389434,0
258,0.010320000000000107,4.99972120164681,0.8181659771770996,-0.8069637064949748,0
259,0.010359999999999925,4.998734831190575,0.8346054823804866,-0.823486083726454,0
260,0.010399999999999965,5.001365152405508,0.855319259263828,-0.8442827105221561,0
261,0.010440000000000005,4.999063621342738,0.8691284440537455,-0.8581747225679526,0
262,0.010480000000000045,4.997419670581074,0.8770194068625702,-0.8661484894352107,0
263,0.010520000000000085,5.001036362253937,0.8878694808094499,-0.8770813437019056,0
264,0.010559999999999903,5.000378781950543,0.8914861721468058,-0.8807807910790815,0
265,0.010599999999999943,4.998077250885994,0.8826088388835827,-0.8719861890341065,0
266,0.010639999999999983,4.99610450997022,0.8766906167444978,-0.8661506727499274,0
267,0.010680000000000023,5.001693942556992,0.8625526417528626,-0.8520953777078978,0
268,0.010720000000000063,4.99972120164681,0.8447979757221381,-0.8344233651793386,0
269,0.010760000000000103,5.000049991798719,0.8198099276870445,-0.8095179436566544,0
270,0.01079999999999992,5.000049991798719,0.8004113118176426,-0.7902019267674202,0
271,0.01083999999999996,4.999392411494816,0.7790399557278614,-0.7689131415829166,0
272,0.01088,5.000049991798719,0.7602989207153623,-0.7502546488579961,0
273,0.01092000000000004,5.000049991798719,0.7369548249041552,-0.7269930661737054,0
274,0.01096000000000008,4.99972120164681,0.7136107295773417,-0.7037314542700329,0
275,0.010999999999999899,5.000378781950543,0.6938833254571369,-0.6840865033259349,0
276,0.011039999999999939,5.000378781950543,0.6698816509198579,-0.6601672511743286,0
277,0.011079999999999979,4.99972120164681,0.6468663470641484,-0.6372343383703236,0
278,0.011120000000000019,4.99972120164681,0.6337147450803869,-0.6241650955606344,0
279,0.011160000000000059,4.99972120164681,0.6208919333009872,-0.6114246105338865,0
280,0.011200000000000099,5.000049991798719,0.6060963814388042,-0.5967113524590277,0
281,0.011239999999999917,5.000378781950543,0.5899856696452188,-0.5806829009434171,0
282,0.011279999999999957,5.000378781950543,0.5696006877280952,-0.5603801452507884,0
283,0.011319999999999997,5.000049991798719,0.5498732862504578,-0.5407349353999311,0
284,0.011360000000000037,4.99972120164681,0.5324474152566243,-0.5233912208908298,0
285,0.011400000000000077,5.000049991798719,0.5054866342996256,-0.49651256073208894,0
286,0.011439999999999895,5.000049991798719,0.4913486640819322,-0.4824566750816635,0
287,0.011479999999999935,4.999392411494816,0.47030610412294893,-0.46149616291435946,0
288,0.011519999999999975,5.000378781950543,0.4472908046716622,-0.4385628739344859,0
289,0.011560000000000015,5.000049991798719,0.42033002599020897,-0.41168406785942874,0
290,0.011600000000000055,5.000378781950543,0.3933692480451899,-0.3848052241109687,0
291,0.011640000000000095,4.99972120164681,0.36575089092192753,-0.357268762229545,0
292,0.011679999999999913,5.000378781950543,0.3387901144912822,-0.3303898415410774,0
293,0.011719999999999953,4.99972120164681,0.3154460281952075,-0.30712757094252574,0
294,0.011759999999999993,4.99972120164681,0.28782767331967274,-0.2795909911748186,0
295,0.011800000000000033,5.000049991798719,0.25725020994122905,-0.2490952617694242,0
296,0.011840000000000073,4.99972120164681,0.22075452916367738,-0.21268127328502373,0
297,0.011880000000000113,5.000378781950543,0.1862315892253052,-0.1782399834147534,0
298,0.01191999999999993,4.99972120164681,0.14316011362678138,-0.13525011511410415,0
299,0.01195999999999997,5.000378781950543,0.095485581995499,-0.08765714746526954,0
300,0.01200000000000001,5.000378781950543,0.048139842803156765,-0.04039292839473205,0
301,0.01204000000000005,5.000049991798719,-0.005781690331979852,0.013447129024470816,0
302,0.01208000000000009,5.000378781950543,-0.06562143649826817,0.07320544442593091,0
303,0.012119999999999909,4.99972120164681,-0.12644754768848476,0.1339501703476607,0
304,0.012159999999999949,4.99972120164681,-0.18398575679732287,0.19140704022958532,0
305,0.012199999999999989,5.000378781950543,-0.24218154122801916,0.2495215320201632,0
306,0.012240000000000029,5.001036362253937,-0.29873337281586854,0.3059921180998961,0
307,0.012280000000000069,4.99972120164681,-0.34607908910179486,0.3532566365548947,0
308,0.012320000000000109,5.000049991798719,-0.3838899020779677,0.3909862999224899,0
309,0.012359999999999927,5.000049991798719,-0.4134809717787793,0.42049626878220514,0
310,0.012399999999999967,4.999392411494816,-0.4351810888140205,0.44211533428892724,0
311,0.012440000000000007,5.000378781950543,-0.44734630566223954,0.4541995494662592,0
312,0.012480000000000047,5.000049991798719,-0.44866146422843867,0.4554337567642113,0
313,0.012520000000000087,5.000378781950543,-0.4440584092365004,0.45074980145162225,0
314,0.012559999999999905,4.99972120164681,-0.4259749786339877,0.4325855220209547,0
315,0.012599999999999945,5.000049991798719,-0.40295970268576176,0.4094894492819068,0
316,0.012639999999999985,4.99972120164681,-0.3713958945210345,0.3778448969084611,0
317,0.012680000000000025,4.99972120164681,-0.3404896644150052,0.3468579757205158,0
318,0.012720000000000065,5.000049991798719,-0.3036652183985122,0.3099528922935313,0
319,0.012760000000000105,4.99972120164681,-0.27473172386476336,0.2809388145652567,0
320,0.012799999999999923,5.000707572102282,-0.24678459744067005,0.2529111597070572,0
321,0.012839999999999963,4.99972120164681,-0.21686473157728053,0.22291082071434215,0
322,0.012880000000000003,4.99972120164681,-0.1958221878745412,0.20178785973132163,0
323,0.012920000000000043,4.99972120164681,-0.1728069050635423,0.1786922160332457,0
324,0.012960000000000083,4.99972120164681,-0.1543946783393399,0.16019968535922136,0
325,0.0129999999999999,5.000378781950543,-0.13828397961110772,0.1440087401623587,0
326,0.01303999999999994,5.000378781950543,-0.12710512724426004,0.1327496993518889,0
327,0.01307999999999998,5.000049991798719,-0.11592627472395621,0.1214907169566628,0
328,0.01312000000000002,4.99972120164681,-0.10310347311534969,0.10858784458539447,0
329,0.01316000000000006,5.000049991798719,-0.08995188151378213,0.0953562418768496,0
330,0.0132000000000001,5.000378781950543,-0.07877302848740105,0.08409743794245847,0
331,0.013239999999999919,5.000707572102282,-0.06693659570656622,0.07218111499571761,0
332,0.013279999999999959,4.99972120164681,-0.06003200983978245,0.06519670024811744,0
333,0.013319999999999999,4.99972120164681,-0.052469844300912574,0.05755476765635034,0
334,0.013360000000000039,5.000707572102282,-0.0445788888829237,0.04958410755605144,0
335,0.013400000000000079,5.000378781950543,-0.0389894620834612,0.04391503898736754,0
336,0.013439999999999896,5.000049991798719,-0.03241366580107112,0.037259664391174285,0
337,0.013479999999999936,5.000707572102282,-0.024851500012672237,0.029617984286542942,0
338,0.013519999999999976,4.99972120164681,-0.014659015581730453,0.019346050078909244,0
339,0.013560000000000016,4.99972120164681,-0.012028696998925656,0.01663634680073456,0
340,0.013600000000000056,5.000049991798719,-0.006110480157705198,0.010638810887054012,0
341,0.013640000000000096,5.000378781950543,-0.005452900506126915,0.009901978327314237,0
342,0.013679999999999914,4.99972120164681,-0.001178632758433426,0.005548524376942046,0
343,0.013719999999999954,5.000378781950543,0.0027668451816259126,0.0015239274806609499,0
344,0.013759999999999994,5.000049991798719,0.00506837398845672,-0.0008566524951760385,0
345,0.013800000000000034,5.000049991798719,0.01065780111668721,-0.00652506246465942,0
346,0.013840000000000074,5.000378781950543,0.016904807950460177,-0.012850983271620611,0
347,0.013879999999999892,5.000049991798719,0.015589648613231935,-0.011614668499436293,0
348,0.013919999999999932,4.99972120164681,0.018548757124844717,-0.01465255162810622,0
349,0.013959999999999972,4.99972120164681,0.014603279111640999,-0.010785777744373143,0
350,0.014000000000000012,5.000378781950543,0.008685062126061585,-0.004946193861326401,0
351,0.014040000000000052,5.000049991798719,0.005725953648695714,-0.0020656469204574507,0
352,0.014080000000000092,5.000049991798719,0.004082004499051814,-0.0005001872024359144,0
353,0.01411999999999991,5.000378781950543,0.0030956350107915753,0.00040776549765067505,0
354,0.01415999999999995,4.99972120164681,-0.0005210531030302584,0.003946110005051809,0
355,0.01419999999999999,5.000049991798719,-0.003808951374948702,0.007155738390330804,0
356,0.01424000000000003,5.000049991798719,-0.00808321910937683,0.01135181049564779,0
357,0.01428000000000007,5.000378781950543,-0.011042327528263687,0.014232798080411876,0
358,0.01432000000000011,4.99972120164681,-0.01860449344057817,0.02171691849075967,0
359,0.014359999999999928,5.000378781950543,-0.020577232363083744,0.02361168778032413,0
360,0.014399999999999968,5.000049991798719,-0.018933283261316228,0.021889845451206924,0
361,0.014440000000000008,5.000707572102282,-0.022221181461645576,0.02509992736603496,0
362,0.014480000000000048,5.000049991798719,-0.01991965272276132,0.022720659819440228,0
363,0.014520000000000088,4.99972120164681,-0.021234812002893247,0.023958158305275007,0
364,0.014559999999999906,5.000378781950543,-0.023865130556999917,0.02651089461379455,0
365,0.014599999999999946,5.000049991798719,-0.025509079649145103,0.028077340544028134,0
366,0.014639999999999986,5.000049991798719,-0.02781060837275358,0.030301445724029263,0
367,0.014680000000000026,5.000049991798719,-0.028796977823800904,0.031210471784060334,0
368,0.014720000000000066,5.000707572102282,-0.026495449102891075,0.02883168035866443,0
369,0.014760000000000106,5.000049991798719,-0.029454557457189598,0.031713607228593066,0
370,0.014799999999999924,5.000378781950543,-0.025509079649145103,0.027691029689522167,0
371,0.014839999999999964,5.000378781950543,-0.028796977823800904,0.03090191041935811,0
372,0.014880000000000004,5.000378781950543,-0.030112137090063842,0.03214013505950092,0
373,0.014920000000000044,5.000378781950543,-0.030112137090063842,0.03206328378419837,0
374,0.014960000000000084,5.000049991798719,-0.029783347273691016,0.03165772657507754,0
375,0.014999999999999902,5.000378781950543,-0.029454557457189598,0.03125225377973301,0
376,0.015039999999999942,5.000378781950543,-0.03044092690630805,0.03216202519487127,0
377,0.015079999999999982,5.000049991798719,-0.03340003524671499,0.03504462097672109,0
378,0.015120000000000022,5.000707572102282,-0.03241366580107112,0.03398182497809976,0
379,0.015160000000000062,5.000049991798719,-0.03340003524671499,0.03489185440609313,0
380,0.015200000000000102,5.001036362253937,-0.03471519450577058,0.036130760712157456,0
381,0.01523999999999992,5.000049991798719,-0.035372774134525484,0.036712174981492124,0
382,0.01527999999999996,5.000049991798719,-0.030112137090063842,0.031375460699666916,0
383,0.01532,4.99972120164681,-0.033071245431629134,0.03425858045397913,0
384,0.01536000000000004,5.000049991798719,-0.031098506538410467,0.03220994215123425,0
385,0.01540000000000008,5.001036362253937,-0.031098506538410467,0.03213413244660834,0
386,0.015439999999999898,5.000049991798719,-0.03142729635426868,0.032387202789465955,0
387,0.015479999999999938,5.000049991798719,-0.031756086169998185,0.03264036389009117,0
388,0.015519999999999978,5.000049991798719,-0.037016723204157484,0.03782546349285379,0
389,0.015560000000000018,5.000378781950543,-0.0340576148765004,0.03479090954285387,0
390,0.015600000000000058,4.99972120164681,-0.03208487598559902,0.032742817363538845,0
391,0.0156400000000001,4.99972120164681,-0.035043984320212454,0.03562666526806679,0
392,0.015679999999999916,5.000049991798719,-0.035372774134525484,0.03588028803453959,0
393,0.015719999999999956,5.000378781950543,-0.03471519450577058,0.03514763526361947,0
394,0.015759999999999996,5.000378781950543,-0.03931825189622702,0.039675713940522245,0
395,0.015800000000000036,5.000049991798719,-0.035701563948709644,0.035984142230500324,0
396,0.015840000000000076,4.99972120164681,-0.035043984320212454,0.03525177431248061,0
397,0.015879999999999894,5.000049991798719,-0.029783347273691016,0.02991644497084127,0
398,0.015919999999999934,4.99972120164681,-0.025837869467188898,0.02589637138453227,0
399,0.015959999999999974,5.000049991798719,-0.02090602218305261,0.02089002535628473,0
400,0.016000000000000014,5.000049991798719,-0.017946913798717698,0.01785651578339141,0
401,0.016040000000000054,5.000378781950543,-0.010713537704454032,0.010548836575446169,0
402,0.016080000000000094,5.000378781950543,-0.005781690331979852,0.005542784682952287,0
403,0.016119999999999912,4.99972120164681,0.00506837398845672,-0.005381385045601636,0
404,0.016159999999999952,4.99972120164681,0.014932068945377922,-0.01531908578104755,0
405,0.016199999999999992,5.000378781950543,0.023809394504130166,-0.024270316971597483,0
406,0.016240000000000032,4.99972120164681,0.03268672015498804,-0.033221447590953246,0
407,0.016280000000000072,4.99972120164681,0.043865574808886185,-0.04447400603404397,0
408,0.016320000000000112,4.99972120164681,0.05635958900548195,-0.05704162232509452,0
409,0.01635999999999993,5.000378781950543,0.06227780631952985,-0.06303333952400564,0
410,0.01639999999999997,4.99972120164681,0.0731278715001718,-0.07395680186564976,0
411,0.01644000000000001,4.99972120164681,0.08858099486971066,-0.08948321915865028,0
412,0.01648000000000005,5.000049991798719,0.09910227051166931,-0.10007768497344627,0
413,0.01652000000000009,5.000707572102282,0.11488418421091426,-0.11593268458242176,0
414,0.016559999999999908,5.000049991798719,0.1250766702917519,-0.1261981517980075,0
415,0.016599999999999948,5.000049991798719,0.1355979463691857,-0.13679230372394377,0
416,0.016639999999999988,5.000049991798719,0.14644801245445316,-0.14771513986082319,0
417,0.016680000000000028,5.000707572102282,0.15236623037478086,-0.15370602152585144,0
418,0.016720000000000068,5.000049991798719,0.17012088437045125,-0.1715332324499198,0
419,0.016760000000000108,4.99972120164681,0.18688916902140254,-0.18837396670421064,0
420,0.016799999999999926,5.000049991798719,0.20365745398298266,-0.20521459343595666,0
421,0.016839999999999966,5.000049991798719,0.22108331907413145,-0.22271269195662868,0
422,0.016880000000000006,5.000049991798719,0.2421258735879729,-0.2438273710525338,0
423,0.016920000000000046,5.000378781950543,0.2611956890304813,-0.26296920172348726,0
424,0.016960000000000086,5.000049991798719,0.2773063954851095,-0.27915181354744645,0
425,0.016999999999999904,5.000707572102282,0.3019656405954552,-0.30388285366318235,0
426,0.017039999999999944,5.000049991798719,0.32662488635011494,-0.32861378355513937,0
427,0.017079999999999984,5.000049991798719,0.34668107336830023,-0.34874154333905705,0
428,0.017120000000000024,4.99972120164681,0.36607968088305576,-0.3682116117451934,0
429,0.017160000000000064,5.000049991798719,0.38219038911505043,-0.3843936684921216,0
430,0.017200000000000104,5.000049991798719,0.3979723076418744,-0.4002468226560321,0
431,0.017239999999999922,5.000049991798719,0.407507216875271,-0.4098528541479706,0
432,0.017279999999999962,5.000049991798719,0.4098087467041101,-0.41222539235681677,0
433,0.017320000000000002,5.000707572102282,0.4124390665150956,-0.4149266061699976,0
434,0.017360000000000042,5.000378781950543,0.41211027653833776,-0.4146685953190663,0
435,0.017400000000000082,4.99972120164681,0.40290415723377737,-0.4055331397661325,0
436,0.0174399999999999,4.99972120164681,0.39501319789866063,-0.3977127283113416,0
437,0.01747999999999994,5.000049991798719,0.3789024894541418,-0.38167245137948375,0
438,0.01751999999999998,5.000707572102282,0.36410694111796427,-0.3669472176926807,0
439,0.01756000000000002,5.000049991798719,0.34668107336830023,-0.3495915472342298,0
440,0.01760000000000006,4.99972120164681,0.3332006853260908,-0.3361812386309489,0
441,0.0176400000000001,4.99972120164681,0.3141308684209285,-0.3171813828190645,0
442,0.017679999999999918,5.000049991798719,0.29637621164709543,-0.2994965683002555,0
443,0.017719999999999958,5.000378781950543,0.28092308472741295,-0.28411316430550854,0
444,0.017759999999999998,5.000049991798719,0.26842906740424627,-0.27168875008612814,0
445,0.017800000000000038,4.99972120164681,0.252318361103246,-0.25564752657748313,0
446,0.017840000000000078,5.000049991798719,0.23620765508232466,-0.2396061825479887,0
447,0.017879999999999896,4.99972120164681,0.22831669713394426,-0.23178446530139918,0
448,0.017919999999999936,5.000378781950543,0.21976815943302316,-0.22330504652472025,0
449,0.017959999999999976,5.000049991798719,0.21187720162606338,-0.2154830853773425,0
450,0.018000000000000016,5.000707572102282,0.2010271347528568,-0.2047018924127526,0
451,0.018040000000000056,5.000049991798719,0.19445133671082937,-0.19819484504288315,0
452,0.018080000000000096,4.99972120164681,0.18886190841256045,-0.19267404369563762,0
453,0.018119999999999914,5.000378781950543,0.18393005994272793,-0.18781069797184075,0
454,0.018159999999999954,5.000049991798719,0.17373757319036792,-0.17768658927750378,0
455,0.018199999999999994,4.99972120164681,0.173408783297048,-0.17742605227200303,0
456,0.018240000000000034,5.000378781950543,0.1730799934038481,-0.17716538961506648,0
457,0.018280000000000074,5.000049991798719,0.1655178258934021,-0.16967122320882103,0
458,0.018320000000000114,4.99972120164681,0.1563117090100981,-0.16053298081799844,0
459,0.018359999999999932,5.000049991798719,0.14940712140971585,-0.15369614061957804,0
460,0.018399999999999972,5.000378781950543,0.14644801245445316,-0.1508046514978186,0
461,0.018440000000000012,4.999392411494816,0.13231004758158987,-0.13673417841292754,0
462,0.018480000000000052,4.999392411494816,0.12606303991870926,-0.13055453401628733,0
463,0.018520000000000092,4.998734831190575,0.12310393104113287,-0.12766265940789584,0
464,0.01855999999999991,5.000707572102282,0.11554176395451755,-0.12016759711896889,0
465,0.01859999999999995,4.99972120164681,0.10830838680184553,-0.11300119481893561,0
466,0.01863999999999999,4.998077250885994,0.09877348064594688,-0.10353313309796638,0
467,0.01868000000000003,5.001036362253937,0.09680074145419928,-0.10162710745167804,0
468,0.01872000000000007,5.000707572102282,0.08890978473160849,-0.0938027329142195,0
469,0.01876000000000011,4.9970908804284875,0.0902249441804355,-0.09518434271790432,0
470,0.018799999999999928,4.999392411494816,0.08430672667629135,-0.08933244326931074,0
471,0.018839999999999968,4.998406041038327,0.08923857459362991,-0.09433047647477992,0
472,0.018880000000000008,4.99972120164681,0.08299156723636938,-0.08814952117104272,0
473,0.018920000000000048,4.998077250885994,0.07805971935431567,-0.08328359164164827,0
474,0.018960000000000088,4.997419670581074,0.07279908164422239,-0.07808873811802929,0
475,0.018999999999999906,5.002351522859708,0.06983997294627126,-0.07519527897598792,0
476,0.019039999999999946,4.999392411494816,0.06918239323698341,-0.07460321372861242,0
477,0.019079999999999986,4.99972120164681,0.07181271207711976,-0.07729891147418262,0
478,0.019120000000000026,5.000049991798719,0.07247029178839723,-0.07802173407289138,0
479,0.019160000000000066,4.99972120164681,0.06918239323698341,-0.07479894193034456,0
480,0.019200000000000106,4.999392411494816,0.06786723381990087,-0.0735487519839705,0
481,0.019239999999999924,5.000707572102282,0.06425054543319586,-0.06999689567119395,0
482,0.019279999999999964,5.000049991798719,0.06162022661597208,-0.06743127107347494,0
483,0.019320000000000004,5.000049991798719,0.05866111795613836,-0.06453671832206181,0
484,0.019360000000000044,4.99972120164681,0.06063385706157101,-0.06657387456915877,0
485,0.019400000000000084,4.99972120164681,0.06852481352819326,-0.07452910895601061,0
486,0.019439999999999902,5.000378781950543,0.06688086425839593,-0.07294929793132875,0
487,0.019479999999999942,5.000378781950543,0.06655207440480995,-0.07268450619506864,0
488,0.019519999999999982,5.000378781950543,0.06293538602358648,-0.06913167535171515,0
489,0.019560000000000022,4.99972120164681,0.060962646912913254,-0.06722265274880417,0
490,0.019600000000000062,5.000049991798719,0.05701716870504489,-0.0633407495689581,0
491,0.019640000000000102,5.000049991798719,0.05504442960785576,-0.06143144357144405,0
492,0.01967999999999992,5.000049991798719,0.06063385706157101,-0.0670841617489099,0
493,0.01971999999999996,5.000378781950543,0.060962646912913254,-0.06747609950153625,0
494,0.01976,5.000378781950543,0.05898990780673173,-0.06556636502867053,0
495,0.01980000000000004,5.000378781950543,0.05701716870504489,-0.06365648684787446,0
496,0.01984000000000008,5.000707572102282,0.05372927021222988,-0.060431305120119114,0
497,0.019879999999999898,4.99972120164681,0.050770161579389975,-0.05753476865415745,0
498,0.019919999999999938,5.000049991798719,0.04846863264974746,-0.055295666851922554,0
499,0.019959999999999978,5.000378781950543,0.045838313880531376,-0.052727629730420486,0
500,0.020000000000000018,4.99972120164681,0.045509524034943585,-0.052460975613701374,0
501,0.020040000000000058,5.000378781950543,0.044851944344144246,-0.051865385294850075,0
502,0.020080000000000098,4.99972120164681,0.043865574808886185,-0.05094085833762553,0
503,0.020119999999999916,5.000707572102282,0.04123525605372079,-0.048372234930671984,0
504,0.020159999999999956,4.99972120164681,0.03893372714954513,-0.04613225371007125,0
505,0.020199999999999996,4.99972120164681,0.037618567778495635,-0.04487849392424137,0
506,0.020240000000000036,4.99972120164681,0.03433066935967702,-0.04165184655967061,0
507,0.020280000000000076,5.000049991798719,0.036303408409458296,-0.0436856877012186,0
508,0.020319999999999894,5.000378781950543,0.03597461856751347,-0.04341785055816205,0
509,0.020359999999999934,5.000049991798719,0.03597461856751347,-0.043478653434891684,0
510,0.020399999999999974,5.000049991798719,0.037618567778495635,-0.04518325527228667,0
511,0.020440000000000014,5.000378781950543,0.031700350633686175,-0.03932554007654229,0
512,0.020480000000000054,5.000049991798719,0.027097292882612076,-0.03478283317128669,0
513,0.020520000000000094,5.000049991798719,0.023809394504130166,-0.03155513411061488,0
514,0.02055999999999991,4.99972120164681,0.02019270630239349,-0.02799849327506025,0
515,0.02059999999999995,4.99972120164681,0.019206336795484613,-0.027072018760232838,0
516,0.02063999999999999,5.000049991798719,0.016247228281592724,-0.024172652443001583,0
517,0.02068000000000003,5.000049991798719,0.013616909611190692,-0.021601922753676464,0
518,0.02072000000000007,4.99972120164681,0.007369902801517392,-0.015414351290495981,0
519,0.02076000000000011,4.99972120164681,0.008685062126061585,-0.01678879190911589,0
520,0.02079999999999993,5.000049991798719,0.005725953648695714,-0.013888810256747958,0
521,0.02083999999999997,4.99972120164681,0.001780475694892425,-0.010002304243381388,0
522,0.02088000000000001,5.000049991798719,0.0024380553525874815,-0.010718700542650741,0
523,0.02092000000000005,4.99972120164681,0.0027668451816259126,-0.011106151301287087,0
524,0.02096000000000009,5.001036362253937,-0.001178632758433426,-0.0072191781669275895,0
525,0.020999999999999908,5.000049991798719,-0.003808951374948702,-0.0046472078214895435,0
526,0.021039999999999948,5.000378781950543,-0.0024937920677107622,-0.006020558455659741,0
527,0.021079999999999988,5.000378781950543,-0.003808951374948702,-0.004763433122893637,0
528,0.021120000000000028,5.000049991798719,-0.005452900506126915,-0.0031773602066232365,0
529,0.021160000000000068,5.000049991798719,-0.004466531027802631,-0.004221447734404318,0
530,0.021200000000000108,5.000049991798719,-0.0047953208540382625,-0.003950217387509142,0
531,0.021239999999999926,4.99972120164681,-0.005124110680146385,-0.0036788280671864876,0
532,0.021279999999999966,5.000049991798719,-0.007096849634115457,-0.0017633302432406711,0
533,0.021320000000000006,4.99972120164681,-0.006110480157705198,-0.0028067810729410503,0
534,0.021360000000000046,5.000378781950543,-0.011042327528263687,0.0020681451207901352,0
535,0.021400000000000086,5.000049991798719,-0.00939837840793746,0.00036743539858312413,0
536,0.021439999999999904,5.000049991798719,-0.011042327528263687,0.001954784889207889,0
537,0.021479999999999944,4.99972120164681,-0.008412008934208556,-0.0007319719663921309,0
538,0.021519999999999984,5.000049991798719,-0.0090695885834889,-0.00013066881578327472,0
539,0.021560000000000024,5.000049991798719,-0.012686276645394332,0.003429904903775649,0
540,0.021600000000000064,4.99972120164681,-0.01301506646843685,0.0037027429329783285,0
541,0.021640000000000104,5.000049991798719,-0.01630296469182467,0.006934852301939923,0
542,0.02167999999999992,5.000378781950543,-0.02320755091924319,0.013783813003973133,0
543,0.02171999999999996,5.000378781950543,-0.024851500012672237,0.015372300289400703,0
544,0.02176,4.99972120164681,-0.028139398189897927,0.018604900763062593,0
545,0.02180000000000004,5.000378781950543,-0.03372882506167206,0.024139194421470694,0
546,0.02184000000000008,5.000378781950543,-0.03668793339048888,0.027043334411580994,0
547,0.0218799999999999,5.000707572102282,-0.04523646850393555,0.035537066444139315,0
548,0.02191999999999994,5.000049991798719,-0.05115468506975916,0.041400645568743566,0
549,0.02195999999999998,4.99972120164681,-0.05279863410837703,0.04299012318634912,0
550,0.02200000000000002,5.000049991798719,-0.059374430230432304,0.04951161428681991,0
551,0.02204000000000006,5.000049991798719,-0.059374430230432304,0.04945747604256201,0
552,0.0220800000000001,5.000378781950543,-0.059374430230432304,0.049403504952202526,0
553,0.022119999999999918,4.99972120164681,-0.06364869768191721,0.053623968842466396,0
554,0.022159999999999958,4.999392411494816,-0.06529264669586828,0.05521428219823829,0
555,0.022199999999999998,5.000049991798719,-0.06660780590468694,0.05647597402448168,0
556,0.022240000000000038,5.000049991798719,-0.07088207331895803,0.06069694270299744,0
557,0.022280000000000078,5.000378781950543,-0.07121086311914367,0.06097260278411318,0
558,0.022319999999999895,5.000378781950543,-0.07351239171679176,0.06322117104788733,0
559,0.022359999999999935,5.000049991798719,-0.06956691411691203,0.05922290286648038,0
560,0.022399999999999975,5.000049991798719,-0.07219723251891826,0.0618006008050927,0
561,0.022440000000000015,5.000378781950543,-0.07219723251891826,0.061748150824249615,0
562,0.022480000000000055,5.000707572102282,-0.07252602231858225,0.06202466148866517,0
563,0.022520000000000095,5.000049991798719,-0.07285481211811588,0.06230134336021062,0
564,0.022559999999999913,5.000378781950543,-0.07614271010627514,0.06553730498792495,0
565,0.022599999999999953,4.99972120164681,-0.07647149990437309,0.06581433035201731,0
566,0.022639999999999993,4.999392411494816,-0.07318360191751903,0.062474840215101635,0
567,0.022680000000000033,5.000049991798719,-0.07318360191751903,0.06242342070509249,0
568,0.022720000000000073,5.000378781950543,-0.07219723251891826,0.061385804791243004,0
569,0.022760000000000113,5.000049991798719,-0.07581392030804664,0.06495141941318583,0
570,0.02279999999999993,5.000049991798719,-0.07449876111382696,0.0635853607517366,0
571,0.02283999999999997,5.000049991798719,-0.0791018182844538,0.06813769250556831,0
572,0.02288000000000001,4.99972120164681,-0.08041697747135755,0.06940230067517067,0
573,0.02292000000000005,5.000378781950543,-0.07745786929788322,0.06639281623152452,0
574,0.02296000000000009,4.999392411494816,-0.07712907950017713,0.06601382525698396,0
575,0.02299999999999991,5.000378781950543,-0.08008818767482774,0.06892290769291265,0
576,0.02303999999999995,5.000378781950543,-0.08173213665616903,0.07051700671698247,0
577,0.02307999999999999,5.000049991798719,-0.08140334686016236,0.0701385430870512,0
578,0.02312000000000003,4.999063621342738,-0.08074576726775658,0.06943146612451798,0
579,0.02316000000000007,5.000378781950543,-0.08469124481434036,0.07332762310377158,0
580,0.02320000000000011,4.99972120164681,-0.08666398358056253,0.07525121844300661,0
581,0.023239999999999927,5.000049991798719,-0.08699277337447438,0.07553104228636157,0
582,0.023279999999999967,5.000378781950543,-0.08699277337447438,0.07548225414685927,0
583,0.023320000000000007,5.000378781950543,-0.09028067130638286,0.07872154208347731,0
584,0.023360000000000047,4.99972120164681,-0.08666398358056253,0.07505642283826408,0
585,0.023400000000000087,4.999392411494816,-0.09028067130638286,0.07862485785079873,0
586,0.023439999999999905,5.000049991798719,-0.08929430192818714,0.07759041489415405,0
587,0.023479999999999945,4.99972120164681,-0.09323977943388458,0.08148799828348408,0
588,0.023519999999999985,4.99972120164681,-0.09258219985091413,0.08078270437198393,0
589,0.023560000000000025,4.99972120164681,-0.09323977943388458,0.0813927497385257,0
590,0.023600000000000065,5.000378781950543,-0.09422614880735543,0.08233176533043504,0
591,0.023640000000000105,5.000049991798719,-0.08962309172105022,0.0776815352187004,0
592,0.023679999999999923,5.000049991798719,-0.08929430192818714,0.07730575347629949,0
593,0.023719999999999963,5.000049991798719,-0.09587009776051285,0.08383473875322889,0
594,0.023760000000000003,4.999392411494816,-0.09850041607873007,0.08641842822692744,0
595,0.023800000000000043,5.000049991798719,-0.10343226290269213,0.09130382823246633,0
596,0.023840000000000083,5.000049991798719,-0.09850041607873007,0.0863257169298722,0
597,0.0238799999999999,5.000378781950543,-0.10113073438852911,0.08890995341299926,0
598,0.02391999999999994,4.99972120164681,-0.10113073438852911,0.08886405454892592,0
599,0.02395999999999998,4.99972120164681,-0.09915799565696932,0.08684560022499518,0
600,0.02400000000000002,5.000378781950543,-0.10376105268990284,0.0914031252448255,0
601,0.02404000000000006,4.99972120164681,-0.10573379141039972,0.09333051583750962,0
602,0.0240800000000001,5.000049991798719,-0.10507621183742798,0.0926277723264915,0
603,0.02411999999999992,5.000378781950543,-0.10343226290269213,0.09093884394640062,0
604,0.02415999999999996,4.99972120164681,-0.10639137098284411,0.09385315737525896,0
605,0.0242,5.000049991798719,-0.10639137098284411,0.09380854781783758,0
606,0.02424000000000004,5.000049991798719,-0.10507621183742798,0.09244896450712015,0
607,0.02428000000000008,4.99972120164681,-0.10704895055476103,0.09437746474795289,0
608,0.024319999999999897,5.000049991798719,-0.1106656381908704,0.09795009989147241,0
609,0.024359999999999937,5.000049991798719,-0.10935047905231472,0.09659107453777147,0
610,0.024399999999999977,5.000049991798719,-0.10441863226392899,0.09161554810363982,0
611,0.024440000000000017,5.000707572102282,-0.10474742205074437,0.0919008451044798,0
612,0.024480000000000057,4.99972120164681,-0.10639137098284411,0.09350148839915774,0
613,0.024520000000000097,5.000707572102282,-0.10704895055476103,0.09411594976939776,0
614,0.024559999999999915,5.000378781950543,-0.10573379141039972,0.0927578601446998,0
615,0.024599999999999955,4.99972120164681,-0.11230958711109378,0.09929091337039299,0
616,0.024639999999999995,4.99972120164681,-0.11395353602801415,0.10089230810003996,0
617,0.024680000000000035,4.99972120164681,-0.10836410969701198,0.09526051615027556,0
618,0.024720000000000075,5.000049991798719,-0.10737774034052165,0.09423197002270622,0
619,0.024759999999999893,5.000049991798719,-0.10639137098284411,0.09320361301918913,0
620,0.024799999999999933,5.000378781950543,-0.10935047905231472,0.09612092284399627,0
621,0.024839999999999973,4.999063621342738,-0.1103368484064295,0.09706568362893687,0
622,0.024880000000000013,5.000049991798719,-0.11428232581100171,0.10096974241251015,0
623,0.024920000000000053,5.000049991798719,-0.11526869515917111,0.10191488335891076,0
624,0.024960000000000093,4.999392411494816,-0.11461111559385707,0.1012162658804784,0
625,0.02499999999999991,5.000049991798719,-0.11263837689474214,0.0992026800246776,0
626,0.02503999999999995,5.000707572102282,-0.11461111559385707,0.1011347625896787,0
627,0.02507999999999999,4.999392411494816,-0.11230958711109378,0.09879276925986723,0
628,0.02512000000000003,4.99972120164681,-0.11230958711109378,0.09875249596272871,0
629,0.02516000000000007,5.000049991798719,-0.11888538275893985,0.10528821012453668,0
630,0.02520000000000011,4.999392411494816,-0.12414601923909123,0.11050895718928415,0
631,0.02523999999999993,5.000378781950543,-0.12414601923909123,0.11046926010238765,0
632,0.02527999999999997,4.99972120164681,-0.12020054188215752,0.10648427824327368,0
633,0.02532000000000001,5.000378781950543,-0.1182278031965366,0.10447222789472994,0
634,0.02536000000000005,5.000378781950543,-0.11855659297780442,0.1047618991052025,0
635,0.02540000000000009,5.000049991798719,-0.12217328056301004,0.10833966146293535,0
636,0.025439999999999907,4.99972120164681,-0.12085812144297166,0.10698577070826298,0
637,0.025479999999999947,4.99972120164681,-0.12578996813217858,0.1118790796035088,0
638,0.025519999999999987,4.999392411494816,-0.1290778659083996,0.11512863367259019,0
639,0.025560000000000027,5.000707572102282,-0.13039302501516953,0.11640564340350158,0
640,0.025600000000000067,4.99972120164681,-0.12578996813217858,0.11176463171870053,0
641,0.025640000000000107,5.000049991798719,-0.126118757910398,0.1120556615102296,0
642,0.025679999999999925,4.99972120164681,-0.126118757910398,0.11201809657803079,0
643,0.025719999999999965,4.99972120164681,-0.12348843968092783,0.1093504087085223,0
644,0.025760000000000005,5.000707572102282,-0.12151570100325589,0.10734049591893527,0
645,0.025800000000000045,5.000378781950543,-0.12644754768848476,0.11223536425462519,0
646,0.025840000000000085,4.99972120164681,-0.12940665568529136,0.11515768989680863,0
647,0.025879999999999903,5.000049991798719,-0.12020054188215752,0.10591498996479053,0
648,0.025919999999999943,4.99972120164681,-0.11888538275893985,0.10456344116753004,0
649,0.025959999999999983,5.000707572102282,-0.12085812144297166,0.10649998685973923,0
650,0.026000000000000023,5.000049991798719,-0.11691264407014172,0.10251851340295863,0
651,0.026040000000000063,5.000049991798719,-0.11428232581100171,0.09985239619166117,0
652,0.026080000000000103,5.000049991798719,-0.11493990537658023,0.10047437415906284,0
653,0.02611999999999992,5.000378781950543,-0.11789901341513638,0.10339807817387284,0
654,0.02615999999999996,4.99972120164681,-0.1182278031965366,0.1036916617246672,0
655,0.0262,4.99972120164681,-0.11691264407014172,0.10234149437777262,0
656,0.02624000000000004,5.000378781950543,-0.11493990537658023,0.10033394568903625,0
657,0.02628000000000008,5.000049991798719,-0.11855659297780442,0.10391602173387889,0
658,0.0263199999999999,5.000049991798719,-0.11921417253994292,0.10453918839014459,0
659,0.02635999999999994,5.000049991798719,-0.12348843968092783,0.10877924148572463,0
660,0.02639999999999998,5.000707572102282,-0.12381722946007585,0.10907401628813523,0
661,0.02644000000000002,5.000049991798719,-0.1277627067995044,0.11298567792593078,0
662,0.02648000000000006,5.000049991798719,-0.12480359879672413,0.10999295370129289,0
663,0.0265200000000001,4.999392411494816,-0.1251323885753416,0.11028832694072979,0
664,0.026559999999999917,5.000049991798719,-0.12710512724426004,0.11222784895427432,0
665,0.026599999999999957,4.99972120164681,-0.1290778659083996,0.11416757104620066,0
666,0.026639999999999997,4.99972120164681,-0.12874907613137498,0.1138059649776993,0
667,0.026680000000000037,4.99972120164681,-0.13039302501516953,0.11541729804654793,0
668,0.026720000000000077,4.99972120164681,-0.13203697389564184,0.11702883178261514,0
669,0.026759999999999895,5.001036362253937,-0.1251323885753416,0.1100920321806729,0
670,0.026799999999999935,5.000049991798719,-0.1323657636713375,0.11729339404822176,0
671,0.026839999999999975,5.000049991798719,-0.13631124096930963,0.1212070593595802,0
672,0.026880000000000015,5.001693942556992,-0.13631124096930963,0.1211754488016418,0
673,0.026920000000000055,4.99972120164681,-0.14157187733677873,0.12640467622489,0
674,0.026960000000000095,4.99972120164681,-0.1405855080204771,0.12538709976132467,0
675,0.026999999999999913,5.001036362253937,-0.13992792847560936,0.12469851504758475,0
676,0.027039999999999953,4.998406041038327,-0.148805252286292,0.13354503584741217,0
677,0.027079999999999993,5.002022732708393,-0.14255824665188005,0.127267429537976,0
678,0.027120000000000033,4.998734831190575,-0.1468325136701073,0.1315112983930095,0
679,0.027160000000000073,5.002680313010939,-0.15768257599953056,0.14233116524525163,0
680,0.027200000000000113,5.000049991798719,-0.1543946783393399,0.1390132749662543,0
681,0.02723999999999993,4.998406041038327,-0.15077799089766464,0.1353667979346853,0
682,0.02727999999999997,5.000049991798719,-0.15110678066575872,0.135666001310511,0
683,0.02732000000000001,5.001365152405508,-0.14781888297880097,0.13234872059579353,0
684,0.02736000000000005,4.99972120164681,-0.14091429779271097,0.1254149559115041,0
685,0.02740000000000009,5.000049991798719,-0.13400971254782096,0.11848139486119214,0
686,0.02743999999999991,5.000378781950543,-0.13039302501516953,0.11483593537727646,0
687,0.02747999999999995,5.000378781950543,-0.1182278031965366,0.10264214562107771,0
688,0.02751999999999999,4.99972120164681,-0.13039302501516953,0.11477900367354182,0
689,0.02756000000000003,4.999392411494816,-0.11954296232081356,0.10390078154026787,0
690,0.02760000000000007,5.000378781950543,-0.11263837689474214,0.09696824115653574,0
691,0.02764000000000011,5.000049991798719,-0.10113073438852911,0.08543284832607587,0
692,0.027679999999999927,5.000049991798719,-0.09948678544589158,0.0837613538429098,0
693,0.027719999999999967,5.000378781950543,-0.09882920586791545,0.08307643365657272,0
694,0.027760000000000007,5.000049991798719,-0.09652767734085597,0.08074776959991159,0
695,0.027800000000000047,5.000378781950543,-0.09685646713083039,0.08104962908377507,0
696,0.027840000000000087,5.000707572102282,-0.09784283649996468,0.08200927351315768,0
697,0.027879999999999905,5.000378781950543,-0.10178831396466272,0.08592823154546647,0
698,0.027919999999999945,5.000378781950543,-0.0971852569206733,0.08129886071558556,0
699,0.027959999999999985,5.000049991798719,-0.09060946109885244,0.07469695689163598,0
700,0.028000000000000025,5.000378781950543,-0.09455493859824966,0.07861653230805926,0
701,0.028040000000000065,4.999392411494816,-0.09356856922517286,0.07760446690468009,0
702,0.028080000000000105,4.99972120164681,-0.0998155752346823,0.08382598306819786,0
703,0.028119999999999923,5.000707572102282,-0.10014436502334141,0.08412948932493497,0
704,0.028159999999999963,5.000049991798719,-0.10408984247698179,0.08804988968859948,0
705,0.028200000000000003,5.000049991798719,-0.10145952417666172,0.08539470086624118,0
706,0.028240000000000043,5.000049991798719,-0.10047315481186896,0.08438366767145195,0
707,0.028280000000000083,5.000049991798719,-0.0998155752346823,0.08370163107852513,0
708,0.0283199999999999,5.000049991798719,-0.10014436502334141,0.08400617078602313,0
709,0.02835999999999994,4.99972120164681,-0.10145952417666172,0.0852972869111899,0
710,0.02839999999999998,5.000378781950543,-0.10145952417666172,0.08527345105257607,0
711,0.02844000000000002,5.000049991798719,-0.10178831396466272,0.08557861226613636,0
712,0.02848000000000006,5.000378781950543,-0.10474742205074437,0.08851429917468295,0
713,0.0285200000000001,5.000707572102282,-0.10441863226392899,0.08816229571806766,0
714,0.02855999999999992,4.99972120164681,-0.10080194460026483,0.08452260200126299,0
715,0.02859999999999996,5.000049991798719,-0.10376105268990284,0.08745891176143693,0
716,0.02864,5.000378781950543,-0.09850041607873007,0.08217568464958418,0
717,0.02868000000000004,5.000707572102282,-0.0998155752346823,0.08346846123683671,0
718,0.02872000000000008,4.99972120164681,-0.0998155752346823,0.08344628670139989,0
719,0.028759999999999897,5.000049991798719,-0.09784283649996468,0.08145158156387522,0
720,0.028799999999999937,5.000707572102282,-0.09915799565696932,0.08274498254815171,0
721,0.028839999999999977,5.000049991798719,-0.09554130797014417,0.07910674501420661,0
722,0.028880000000000017,5.000049991798719,-0.09422614880735543,0.0777702444235135,0
723,0.028920000000000057,5.000049991798719,-0.09685646713083039,0.08037942982998328,0
724,0.028960000000000097,5.000378781950543,-0.09093825089119083,0.07444028927399564,0
725,0.028999999999999915,5.000049991798719,-0.09126704068339796,0.07474836343834226,0
726,0.029039999999999955,5.000049991798719,-0.09192462026741856,0.07538543616889103,0
727,0.029079999999999995,5.000378781950543,-0.08995188151378213,0.07339239942014128,0
728,0.029120000000000035,5.000707572102282,-0.08600640399234578,0.0694268328439872,0
729,0.029160000000000075,5.000049991798719,-0.08797914275542355,0.07137969157284485,0
730,0.029200000000000115,5.000707572102282,-0.08732156316825516,0.07070244105011905,0
731,0.029239999999999933,5.000049991798719,-0.08337608563423975,0.06673750175543522,0
732,0.029279999999999973,5.000049991798719,-0.0843624550195116,0.06770461862921343,0
733,0.029320000000000013,5.000378781950543,-0.08370487542946127,0.06702799584918781,0
734,0.029360000000000053,5.000049991798719,-0.08107455706402487,0.06437884368569416,0
735,0.029400000000000093,5.000378781950543,-0.08271850604340404,0.06600416832738809,0
736,0.02943999999999991,5.000049991798719,-0.08271850604340404,0.06598575351658142,0
737,0.02947999999999995,4.99972120164681,-0.08732156316825516,0.0705706054220619,0
738,0.02951999999999999,5.000049991798719,-0.09192462026741856,0.07515566695589725,0
739,0.02956000000000003,5.000049991798719,-0.09817162628941313,0.08138488712726036,0
740,0.02960000000000007,5.000378781950543,-0.10441863226392899,0.08761431702454098,0
741,0.02964000000000011,5.000049991798719,-0.1100080586218566,0.0931863771353733,0
742,0.02967999999999993,5.000049991798719,-0.11329595646164246,0.09645711861299011,0
743,0.02971999999999997,5.000049991798719,-0.11592627472395621,0.09907049045088842,0
744,0.02976000000000001,5.000049991798719,-0.11921417253994292,0.10234165183108022,0
745,0.02980000000000005,4.99972120164681,-0.12414601923909123,0.10725697213195926,0
746,0.02984000000000009,4.99972120164681,-0.1297354454620503,0.11283008204111639,0
747,0.029879999999999907,5.000378781950543,-0.1336809227727903,0.11675945316749893,0
748,0.029919999999999947,5.000049991798719,-0.137297610290808,0.12036024467361463,0
749,0.029959999999999987,4.99972120164681,-0.1392703489302085,0.12231729751461229,0
750,0.030000000000000027,5.000378781950543,-0.14190066710861254,0.1249321401471873,0
751,0.030040000000000067,5.000707572102282,-0.13861276938427458,0.12162897716669861,0
752,0.030080000000000107,4.99972120164681,-0.14485977504911357,0.12786092790019796,0
753,0.030119999999999925,5.000049991798719,-0.1481476727480983,0.13113398102581417,0
754,0.030159999999999965,5.000378781950543,-0.1517643602015455,0.1347360342950497,0
755,0.030200000000000005,5.000049991798719,-0.1557098374050238,0.13866708773268352,0
756,0.030240000000000045,5.000378781950543,-0.16228563270127483,0.14522866970869058,0
757,0.030280000000000085,5.000049991798719,-0.16458716104228271,0.1475161952003104,0
758,0.030319999999999903,4.99972120164681,-0.16623110985325845,0.14914635165603,0
759,0.030359999999999943,5.000049991798719,-0.1718205357854315,0.15472219574837442,0
760,0.030399999999999983,4.999392411494816,-0.17247811530430668,0.15536640396216253,0
761,0.030440000000000023,4.99972120164681,-0.17477964361612697,0.15765477152096827,0
762,0.030480000000000063,4.99972120164681,-0.17576601289060007,0.15862819060984623,0
763,0.030520000000000103,5.000378781950543,-0.17773875143590606,0.16058818955033827,0
764,0.03055999999999992,5.000049991798719,-0.17050537674606547,0.15334228584784038,0
765,0.03059999999999996,4.999063621342738,-0.16097047364631673,0.14379506433697928,0
766,0.03064,4.99972120164681,-0.14979162159258003,0.1326041044810752,0
767,0.03068000000000004,5.000049991798719,-0.13828397961110772,0.1210845653117913,0
768,0.03072000000000008,4.99972120164681,-0.12874907613137498,0.11153797526202333,0
769,0.0307599999999999,5.000049991798719,-0.11954296232081356,0.10232038550063263,0
770,0.03079999999999994,4.999392411494816,-0.10869289948224485,0.09145905732987805,0
771,0.03083999999999998,5.000049991798719,-0.0998155752346823,0.08257067836621729,0
772,0.03088000000000002,5.000049991798719,-0.09126704068339796,0.07401129971037285,0
773,0.03092000000000006,4.99972120164681,-0.08370487542946127,0.06643850095686966,0
774,0.0309600000000001,5.000707572102282,-0.07449876111382696,0.057221963738122175,0
775,0.030999999999999917,5.000049991798719,-0.07614271010627514,0.05885570041337347,0
776,0.031039999999999957,5.000049991798719,-0.07647149990437309,0.05917448846765633,0
777,0.031079999999999997,5.000707572102282,-0.07811544889290346,0.060808646271220554,0
778,0.031120000000000037,5.000378781950543,-0.08107455706402487,0.06375817379969294,0
779,0.031160000000000077,5.000049991798719,-0.09126704068339796,0.07394128730020248,0
780,0.031199999999999894,5.000378781950543,-0.08995188151378213,0.0726169685149765,0
781,0.031239999999999934,5.000378781950543,-0.09619888755075014,0.07885502541705428,0
782,0.031279999999999974,4.99972120164681,-0.09915799565696932,0.08180539484456767,0
783,0.031320000000000014,5.000378781950543,-0.10211710375253198,0.08475597469107085,0
784,0.031360000000000054,5.000049991798719,-0.10639137098284411,0.0890219240734284,0
785,0.031400000000000095,5.000707572102282,-0.11395353602801415,0.09657598164120318,0
786,0.03143999999999991,4.99972120164681,-0.11855659297780442,0.10117114145160733,0
787,0.03147999999999995,4.99972120164681,-0.12283086012223408,0.10543772176010463,0
788,0.03151999999999999,5.000378781950543,-0.11954296232081356,0.1021423473896444,0
789,0.03156000000000003,5.000049991798719,-0.1182278031965366,0.10081992192465299,0
790,0.03160000000000007,5.000378781950543,-0.12085812144297166,0.10344318401812456,0
791,0.03164000000000011,5.000378781950543,-0.12085812144297166,0.10343633801033059,0
792,0.03167999999999993,4.99972120164681,-0.126118757910398,0.10869033857054339,0
793,0.03171999999999997,5.000378781950543,-0.12809149657692737,0.11065665138384237,0
794,0.03176000000000001,5.000049991798719,-0.12710512724426004,0.10966406620332206,0
795,0.03180000000000005,5.000049991798719,-0.12414601923909123,0.10669895230506263,0
796,0.03184000000000009,4.99972120164681,-0.1277627067995044,0.11030984387452314,0
797,0.03187999999999991,4.99972120164681,-0.12809149657692737,0.11063304750849727,0
798,0.03191999999999995,5.000378781950543,-0.1323657636713375,0.1149019382503185,0
799,0.03195999999999999,5.000378781950543,-0.13072181479152978,0.11325282275012774,0
800,0.03200000000000003,5.000378781950543,-0.1330233432223299,0.11554939423208649,0
801,0.03204000000000007,4.99972120164681,-0.13400971254782096,0.11653101621760334,0
802,0.03208000000000011,5.000049991798719,-0.13170818411981328,0.11422494999380337,0
803,0.032119999999999926,4.999392411494816,-0.1330233432223299,0.11553578077801362,0
804,0.032159999999999966,4.99972120164681,-0.1349960818721146,0.11750440051827113,0
805,0.032200000000000006,4.99972120164681,-0.13269455344690018,0.11519896252159079,0
806,0.032240000000000046,5.000378781950543,-0.13466729209748313,0.11716800086604005,0
807,0.032280000000000086,5.000378781950543,-0.1376264000643745,0.12012361771738966,0
808,0.032319999999999904,5.000049991798719,-0.13861276938427458,0.12110670503558804,0
809,0.032359999999999944,5.000049991798719,-0.13466729209748313,0.11715815478217109,0
810,0.032399999999999984,4.99972120164681,-0.13170818411981328,0.11419618279217646,0
811,0.032440000000000024,4.99972120164681,-0.1336809227727903,0.11616626630434213,0
812,0.032480000000000064,5.000378781950543,-0.13072181479152978,0.11320471196898473,0
813,0.032520000000000104,5.000049991798719,-0.12809149657692737,0.1105721561001893,0
814,0.03255999999999992,4.99972120164681,-0.12414601923909123,0.10662464971924157,0
815,0.03259999999999996,5.000378781950543,-0.12414601923909123,0.10662282919637722,0
816,0.03264,5.000378781950543,-0.11724143385193893,0.09971663171376204,0
817,0.03268000000000004,5.000049991798719,-0.11198079732731327,0.09445459142621751,0
818,0.03272000000000008,5.000378781950543,-0.10836410969701198,0.09083670826867267,0
819,0.0327599999999999,5.000707572102282,-0.10310347311534969,0.08557508429656256,0
820,0.03279999999999994,4.99972120164681,-0.10145952417666172,0.08393035600333205,0
821,0.03283999999999998,5.000049991798719,-0.09817162628941313,0.08064188669454529,0
822,0.03288000000000002,5.000049991798719,-0.09521251817964406,0.07768241499133105,0
823,0.03292000000000006,4.99972120164681,-0.08830793254881113,0.0707776734882245,0
824,0.0329600000000001,4.99972120164681,-0.08469124481434036,0.0671610374937203,0
825,0.03299999999999992,5.000378781950543,-0.07778665909545869,0.06025671101610447,0
826,0.03303999999999996,5.000049991798719,-0.07285481211811588,0.05532533066837679,0
827,0.03308,4.99972120164681,-0.07088207331895803,0.053353265772224656,0
828,0.03312000000000004,4.99972120164681,-0.06989570391761903,0.052367777430315024,0
829,0.03316000000000008,4.99972120164681,-0.06595022630053791,0.04842338791011211,0
830,0.033199999999999896,4.999392411494816,-0.06562143649826817,0.04809589312118709,0
831,0.033239999999999936,4.99972120164681,-0.0629911180754263,0.04546707650516722,0
832,0.033279999999999976,5.000049991798719,-0.057401691399265334,0.03987935830430951,0
833,0.033320000000000016,5.000049991798719,-0.05444258314375501,0.036922165065581644,0
834,0.033360000000000056,4.99972120164681,-0.05378500352999273,0.036266706881073585,0
835,0.033400000000000096,4.999392411494816,-0.05674411178783788,0.039228142849632594,0
836,0.033439999999999914,5.000378781950543,-0.059045640425562415,0.041532205346514084,0
837,0.033479999999999954,5.000707572102282,-0.06167595886088427,0.04416526365441563,0
838,0.033519999999999994,5.000049991798719,-0.06529264669586828,0.047784897238378615,0
839,0.033560000000000034,5.000378781950543,-0.06627901610267752,0.048774418131540404,0
840,0.033600000000000074,4.99972120164681,-0.06792296511142272,0.05042172422298455,0
841,0.033640000000000114,5.000378781950543,-0.06956691411691203,0.052069235764491004,0
842,0.03367999999999993,4.99972120164681,-0.06627901610267752,0.0487851055945636,0
843,0.03371999999999997,5.000378781950543,-0.06825175491278114,0.050761817410236915,0
844,0.03376000000000001,5.000049991798719,-0.07581392030804664,0.05832816082330869,0
845,0.03380000000000005,5.000049991798719,-0.07088207331895803,0.05340069671323938,0
846,0.03384000000000009,4.99972120164681,-0.07088207331895803,0.05340528430045158,0
847,0.03387999999999991,4.99972120164681,-0.06923812431607472,0.05176612743795747,0
848,0.03391999999999995,5.000049991798719,-0.07614271010627514,0.05867570976471348,0
849,0.03395999999999999,4.99972120164681,-0.08502003460903816,0.06755823504119403,0
850,0.03400000000000003,5.000049991798719,-0.09028067130638286,0.0728242765884209,0
851,0.03404000000000007,5.001036362253937,-0.10113073438852911,0.08367994843362482,0
852,0.03408000000000011,5.000378781950543,-0.11395353602801415,0.096508562584363,0
853,0.03411999999999993,4.99972120164681,-0.12480359879672413,0.1073646414455514,0
854,0.03415999999999997,4.99972120164681,-0.13565366142097834,0.11822092357455002,0
855,0.03420000000000001,5.000049991798719,-0.14749009320937,0.13006377810900452,0
856,0.03424000000000005,5.000049991798719,-0.15209314996923823,0.13467346068331937,0
857,0.03428000000000009,5.000378781950543,-0.15965531458921167,0.1422424540112026,0
858,0.034319999999999906,5.000049991798719,-0.15899773505985432,0.14159190590631268,0
859,0.034359999999999946,5.000378781950543,-0.15307951927151348,0.13568092408010757,0
860,0.034399999999999986,4.99972120164681,-0.1471613034398055,0.12977014456733177,0
861,0.034440000000000026,5.000378781950543,-0.13565366142097834,0.11827014104138002,0
862,0.034480000000000066,5.000049991798719,-0.11954296232081356,0.10216728242320021,0
863,0.034520000000000106,4.999392411494816,-0.10507621183742798,0.08770857422409656,0
864,0.034559999999999924,5.000049991798719,-0.09159583047547391,0.07423643675993075,0
865,0.034599999999999964,4.99972120164681,-0.07745786929788322,0.06010692090286737,0
866,0.034640000000000004,4.999063621342738,-0.06825175491278114,0.05090945306828884,0
867,0.034680000000000044,5.000378781950543,-0.057401691399265334,0.04006823714057556,0
868,0.034720000000000084,5.000049991798719,-0.046551627744407784,0.029227221910109152,0
869,0.0347599999999999,5.000049991798719,-0.04096220095812057,0.02364704418813965,0
870,0.03479999999999994,5.000049991798719,-0.039975831521371616,0.0226701242550027,0
871,0.03483999999999998,5.000049991798719,-0.04194857039370768,0.024652512867643833,0
872,0.03488000000000002,5.000049991798719,-0.0389894620834612,0.021703254329826865,0
873,0.03492000000000006,5.000707572102282,-0.04293493982813261,0.025658781672517283,0
874,0.0349600000000001,4.99972120164681,-0.05279863410837703,0.03553272516787054,0
875,0.03499999999999992,5.000049991798719,-0.05838806081543309,0.04113260049666238,0
876,0.03503999999999996,5.000707572102282,-0.06496385689333826,0.04771904439050534,0
877,0.03508,5.000707572102282,-0.07647149990437309,0.05923753419729473,0
878,0.03512000000000004,5.000707572102282,-0.09258219985091413,0.0753592797030632,0
879,0.03516000000000008,4.999392411494816,-0.10869289948224485,0.09148122343879336,0
880,0.0351999999999999,5.000707572102282,-0.12381722946007585,0.10661699584593946,0
881,0.03523999999999994,5.000049991798719,-0.1392703489302085,0.1220817558480927,0
882,0.03527999999999998,4.998406041038327,-0.15965531458921167,0.14247855991765965,0
883,0.03532000000000002,5.001365152405508,-0.16984779722557486,0.15268307861701724,0
884,0.03536000000000006,5.000378781950543,-0.18760244408953197,0.1704499589683379,0
885,0.0354000000000001,4.998406041038327,-0.20798740852068553,0.19084735408121556,0
886,0.035439999999999916,5.003009103162085,-0.22311173663152228,0.2059843098361827,0
887,0.035479999999999956,5.001365152405508,-0.2451406487963938,0.22802604637369317,0
888,0.035519999999999996,5.000378781950543,-0.2648680322999141,0.24776645074252093,0
889,0.035560000000000036,5.001365152405508,-0.27867720045569355,0.2615888360184955,0
890,0.035600000000000076,4.998406041038327,-0.3026788492845063,0.28560389798267105,0
891,0.035639999999999894,5.005310634217726,-0.3158304373673593,0.29876909497439746,0
892,0.035679999999999934,5.001365152405508,-0.3309547633841736,0.3139072254300033,0
893,0.035719999999999974,4.99972120164681,-0.34213361285655336,0.32510007462556634,0
894,0.035760000000000014,4.99972120164681,-0.35133972406362957,0.3343203805927599,0
895,0.035800000000000054,4.99972120164681,-0.3615322041984969,0.34452725027529163,0
896,0.035840000000000094,5.000049991798719,-0.3628473629155968,0.34585699307628864,0
897,0.03587999999999991,5.000378781950543,-0.3625185732365359,0.3455429817641188,0
898,0.03591999999999995,5.000049991798719,-0.35660035898904563,0.33963973991135177,0
899,0.03595999999999999,4.99972120164681,-0.35298367248173695,0.3360382195695151,0
900,0.03600000000000003,5.000378781950543,-0.3473942478456647,0.33046415461066014,0
901,0.03604000000000007,4.99972120164681,-0.3437775612945547,0.32686302098759157,0
902,0.03608000000000011,5.000378781950543,-0.3319411324618489,0.3150423380709142,0
903,0.03611999999999993,4.999392411494816,-0.3197759137483405,0.3028930579966712,0
904,0.03615999999999997,4.99972120164681,-0.30530916691905047,0.2884424422632221,0
905,0.03620000000000001,5.000378781950543,-0.28755452271197257,0.27070412133999067,0
906,0.03624000000000005,5.000707572102282,-0.25796344813028116,0.24112956195967533,0
907,0.03628000000000009,4.99972120164681,-0.24185275149751145,0.22503557217343179,0
908,0.03631999999999991,5.000049991798719,-0.22048141871996135,0.20368113761327755,0
909,0.03635999999999995,5.000049991798719,-0.20305556233521876,0.18627237054062096,0
910,0.03639999999999999,4.99972120164681,-0.18332817728789086,0.16656226562199283,0
911,0.03644000000000003,5.000378781950543,-0.16853263818297903,0.15178419718242364,0
912,0.03648000000000007,5.000378781950543,-0.15143557043371902,0.13470479035328625,0
913,0.03652000000000011,5.000049991798719,-0.12874907613137498,0.11203614694209213,0
914,0.036559999999999926,5.000049991798719,-0.11888538275893985,0.10219049414619395,0
915,0.036599999999999966,5.000049991798719,-0.10672016076886852,0.09004350213052088,0
916,0.036640000000000006,5.000049991798719,-0.09652767734085597,0.07986943778535918,0
917,0.036680000000000046,5.000378781950543,-0.08896551213519292,0.07232588047971009,0
918,0.036720000000000086,4.99972120164681,-0.08732156316825516,0.07070072793678175,0
919,0.036759999999999904,5.000049991798719,-0.08107455706402487,0.06447270648551282,0
920,0.036799999999999944,4.99972120164681,-0.07712907950017713,0.06054640150666152,0
921,0.036839999999999984,5.000049991798719,-0.0820609264520449,0.06549760867677323,0
922,0.036880000000000024,5.000378781950543,-0.08074576726775658,0.06420199704332069,0
923,0.036920000000000064,5.000049991798719,-0.08732156316825516,0.0707975275247259,0
924,0.036960000000000104,4.998734831190575,-0.08732156316825516,0.07081744883131985,0
925,0.03699999999999992,4.999392411494816,-0.09291098964246501,0.07642698303156711,0
926,0.03703999999999996,5.000707572102282,-0.09619888755075014,0.0797351747772316,0
927,0.03708,5.000049991798719,-0.09554130797014417,0.07909807483539052,0
928,0.03712000000000004,5.000378781950543,-0.09554130797014417,0.07911873996373248,0
929,0.03716000000000008,5.000049991798719,-0.09685646713083039,0.08045474942867961,0
930,0.0371999999999999,5.000378781950543,-0.09258219985091413,0.07620151731343797,0
931,0.03723999999999994,5.000378781950543,-0.09751404671038476,0.0811545838806472,0
932,0.03727999999999998,4.999392411494816,-0.09619888755075014,0.07986082865262377,0
933,0.03732000000000002,5.000049991798719,-0.09389735901632983,0.07758088795265658,0
934,0.03736000000000006,5.000378781950543,-0.09323977943388458,0.07694507978463916,0
935,0.0374000000000001,5.000378781950543,-0.08863672234206758,0.07236397736252395,0
936,0.03743999999999992,5.000378781950543,-0.08896551213519292,0.07271490475409362,0
937,0.03747999999999996,5.000707572102282,-0.0843624550195116,0.06813416783724002,0
938,0.03752,5.000049991798719,-0.0820609264520449,0.06585514173880039,0
939,0.03756000000000004,4.999392411494816,-0.0820609264520449,0.06587782614602103,0
940,0.03760000000000008,5.000378781950543,-0.08238971624778989,0.0662294819533556,0
941,0.037639999999999896,5.000707572102282,-0.0791018182844538,0.06296463127033755,0
942,0.037679999999999936,5.000049991798719,-0.07778665909545869,0.061672700292935534,0
943,0.037719999999999976,5.000049991798719,-0.07614271010627514,0.06005216010735692,0
944,0.037760000000000016,5.000049991798719,-0.07285481211811588,0.05678785117374405,0
945,0.037800000000000056,4.99972120164681,-0.0715396529191989,0.05549646093744057,0
946,0.037840000000000096,5.000378781950543,-0.07285481211811588,0.056835568662362834,0
947,0.037879999999999914,5.000378781950543,-0.06923812431607472,0.053243008603245656,0
948,0.037919999999999954,5.000049991798719,-0.06858054471400928,0.05260973561275534,0
949,0.037959999999999994,5.000049991798719,-0.06627901610267752,0.050332692131591195,0
950,0.038000000000000034,5.000049991798719,-0.06036079964426265,0.04443913897009019,0
951,0.038040000000000074,5.000378781950543,-0.058716850620562686,0.042820031056419156,0
952,0.038080000000000114,5.000378781950543,-0.05575774236972354,0.03988594137331131,0
953,0.03811999999999993,5.000049991798719,-0.04852436660123595,0.032677761273066486,0
954,0.03815999999999997,5.000378781950543,-0.044907678693494255,0.029086445775113018,0
955,0.03820000000000001,5.000378781950543,-0.04359251945043667,0.02779683532265126,0
956,0.03824000000000005,5.000378781950543,-0.03668793339048888,0.020917974071600592,0
957,0.03828000000000009,5.000378781950543,-0.03142729635426868,0.015683237498307606,0
958,0.03831999999999991,5.000049991798719,-0.022549971280973066,0.00683198817593636,0
959,0.03835999999999995,5.000378781950543,-0.01860449344057817,0.0029127610066713716,0
960,0.03839999999999999,5.000378781950543,-0.013343856291351444,-0.002321450920766882,0
961,0.03844000000000003,5.000049991798719,-0.006439269983302923,-0.009199437827667606,0
962,0.03848000000000007,5.000049991798719,-0.002165002240582567,-0.01344693236292882,0
963,0.03852000000000011,5.000049991798719,0.006054743479005864,-0.021639731443540006,0
964,0.03855999999999993,4.99972120164681,0.018877546960101396,-0.034435415230675476,0
965,0.03859999999999997,5.000378781950543,0.02676850304419573,-0.04229907894410018,0
966,0.03864000000000001,5.000378781950543,0.03400187951848738,-0.04950499075102005,0
967,0.03868000000000005,5.000049991798719,0.04287920527475757,-0.05835467992495405,0
968,0.03872000000000009,5.000049991798719,0.048139842803156765,-0.06358750933951712,0
969,0.038759999999999906,5.000049991798719,0.05504442960785576,-0.07046411688406845,0
970,0.038799999999999946,4.99972120164681,0.05866111795613836,-0.07405265521280008,0
971,0.038839999999999986,5.000378781950543,0.07016876280110178,-0.0855319796674342,0
972,0.038880000000000026,5.000378781950543,0.07641577006649763,-0.09175049656206091,0
973,0.038920000000000066,5.000049991798719,0.08430672667629135,-0.09961279321269362,0
974,0.038960000000000106,5.000378781950543,0.08890978473160849,-0.10418702211421166,0
975,0.038999999999999924,5.000049991798719,0.0971295313191825,-0.1123777707488044,0
976,0.039039999999999964,5.000049991798719,0.10403411851227598,-0.11925319158688841,0
977,0.039080000000000004,5.000049991798719,0.10929475641007817,-0.12448449512650112,0
978,0.039120000000000044,5.000049991798719,0.11619934369861068,-0.13135958045420243,0
979,0.039160000000000084,5.000378781950543,0.12310393104113287,-0.1382344986354766,0
980,0.0391999999999999,5.000049991798719,0.12737819942302714,-0.14247893105961307,0
981,0.03923999999999994,5.000378781950543,0.12836456905254606,-0.1434352983404495,0
982,0.03927999999999998,4.99972120164681,0.12014482217344924,-0.13518538312900524,0
983,0.03932000000000002,5.000049991798719,0.11291144498304434,-0.1279216720315191,0
984,0.03936000000000006,5.000707572102282,0.0971295313191825,-0.11210925929644072,0
985,0.0394000000000001,5.000049991798719,0.08069003822127407,-0.0956391023754426,0
986,0.03943999999999992,4.99972120164681,0.06556570484479929,-0.08048394083792632,0
987,0.03947999999999996,4.99972120164681,0.03827614746376892,-0.05316339137347936,0
988,0.03952,5.000378781950543,0.013945699444547363,-0.028801787765694475,0
989,0.03956000000000004,5.000707572102282,-0.0116999071754995,-0.0031248624708139494,0
990,0.03960000000000008,4.99972120164681,-0.039975831521371616,0.0251825432156417,0
991,0.0396399999999999,5.000049991798719,-0.06890933451510713,0.054147689793549905,0
992,0.03967999999999994,5.000378781950543,-0.09915799565696932,0.08442815633937714,0
993,0.03971999999999998,5.000049991798719,-0.12480359879672413,0.11010572627746068,0
994,0.03976000000000002,5.000049991798719,-0.148805252286292,0.13413950753266435,0
995,0.03980000000000006,4.99972120164681,-0.17149174602579192,0.15685828957642714,0
996,0.0398400000000001,5.000049991798719,-0.1882600235954478,0.17365901555867336,0
997,0.039879999999999916,5.000049991798719,-0.20963135724236776,0.19506295729459647,0
998,0.039919999999999956,5.000049991798719,-0.22902995190050734,0.21449431928462648,0
999,0.039959999999999996,4.99972120164681,-0.24185275149751145,0.22735004502127637,0
1000,0.040000000000000036,4.99972120164681,-0.2533603919833013,0.23889077001773396,0
1001,0.040040000000000076,4.99972120164681,-0.26158013508389405,0.24714375556168514,0
1002,0.040080000000000116,5.000707572102282,-0.2648680322999141,0.2504650527138294,0
1003,0.040119999999999933,5.000049991798719,-0.2645392425789356,0.2501698199802266,0
1004,0.040159999999999973,5.000378781950543,-0.2642104528578184,0.24987474385463762,0
1005,0.040200000000000014,5.000378781950543,-0.26289529397196426,0.2485934547277847,0
1006,0.040240000000000054,5.000049991798719,-0.2632240836936356,0.2489562699256744,0
1007,0.040280000000000094,5.000049991798719,-0.25763465840639543,0.24340102538404162,0
1008,0.04031999999999991,4.99972120164681,-0.24842854608150067,0.23422924862474753,0
1009,0.04035999999999995,5.000049991798719,-0.23922243364849655,0.22505762612637814,0
1010,0.04039999999999999,5.000378781950543,-0.22639963400865865,0.21226947033769086,0
1011,0.04044000000000003,4.99972120164681,-0.21193288544700017,0.19783751908962632,0
1012,0.04048000000000007,5.000049991798719,-0.20239798284151073,0.18833756680455155,0
1013,0.04052000000000011,4.99972120164681,-0.19023276210994672,0.17620744894305482,0
1014,0.04055999999999993,4.99972120164681,-0.17839633094992902,0.16440627274404768,0
1015,0.04059999999999997,4.99972120164681,-0.1655735303292713,0.1516188787150979,0
1016,0.04064000000000001,5.000378781950543,-0.15242193973679719,0.13850284588325099,0
1017,0.04068000000000005,5.000378781950543,-0.145188564819613,0.13130517943230743,0
1018,0.04072000000000009,4.99972120164681,-0.13039302501516953,0.11654549833488922,0
1019,0.04075999999999991,5.000378781950543,-0.12184449078319924,0.10803297258438185,0
1020,0.04079999999999995,5.000049991798719,-0.11493990537658023,0.10116454496580264,0
1021,0.04083999999999999,5.000049991798719,-0.10606258119668784,0.09232352741115687,0
1022,0.04088000000000003,4.99972120164681,-0.09323977943388458,0.0795371806399324,0
1023,0.04092000000000007,4.99972120164681,-0.08041697747135755,0.06675098156294153,0
1024,0.04096000000000011,5.000378781950543,-0.07318360191751903,0.05955435631472636,0
1025,0.040999999999999925,5.000378781950543,-0.06430627728788789,0.050713928935444866,0
1026,0.041039999999999965,5.000049991798719,-0.05082589526164695,0.0372705906274331,0
1027,0.041080000000000005,5.000378781950543,-0.039975831521371616,0.02645771659493834,0
1028,0.041120000000000045,5.000378781950543,-0.03274245561641449,0.019261675907508657,0
1029,0.041160000000000085,5.000378781950543,-0.02320755091924319,0.009764251456335887,0
1030,0.0411999999999999,5.000378781950543,-0.00808321910937683,-0.005322455561803552,0
1031,0.04123999999999994,5.000378781950543,0.004082004499051814,-0.01744991031698165,0
1032,0.04127999999999998,5.000378781950543,0.008356272294735026,-0.021686265683552614,0
1033,0.04132000000000002,5.000049991798719,0.018548757124844717,-0.03184069499580283,0
1034,0.04136000000000006,4.99972120164681,0.02315181482994949,-0.03640555458286285,0
1035,0.0414000000000001,5.000049991798719,0.025782133529704057,-0.03899753305439213,0
1036,0.04143999999999992,5.000378781950543,0.027097292882612076,-0.0402742105603372,0
1037,0.04147999999999996,5.000049991798719,0.034988249042434,-0.04812654374733458,0
1038,0.04152,4.99972120164681,0.03597461856751347,-0.04907414966803211,0
1039,0.04156000000000004,5.000049991798719,0.03663219825152894,-0.04969282561183541,0
1040,0.04160000000000008,5.000378781950543,0.03696098809372539,-0.04998257207513429,0
1041,0.0416399999999999,5.000049991798719,0.034988249042434,-0.04797065050481758,0
1042,0.04167999999999994,5.000378781950543,0.033673089677423634,-0.04661616998061935,0
1043,0.04171999999999998,5.000378781950543,0.03202914047399413,-0.04493276147920719,0
1044,0.04176000000000002,4.99972120164681,0.029070031915759978,-0.04193405598696037,0
1045,0.04180000000000006,5.000049991798719,0.03268672015498804,-0.04551101016030265,0
1046,0.0418400000000001,5.000378781950543,0.031700350633686175,-0.04448476994678541,0
1047,0.04187999999999992,4.999392411494816,0.029070031915759978,-0.04181444441723928,0
1048,0.04191999999999996,5.000049991798719,0.031042770953448276,-0.04374704103220456,0
1049,0.04196,5.000049991798719,0.027097292882612076,-0.03976128543721502,0
1050,0.04200000000000004,5.001036362253937,0.025124553854007567,-0.03774813429406562,0
1051,0.04204000000000008,5.000707572102282,0.027097292882612076,-0.039680327130133336,0
1052,0.042079999999999895,4.99972120164681,0.031042770953448276,-0.04358512544419599,0
1053,0.042119999999999935,4.99972120164681,0.039920096679152195,-0.05242163836399499,0
1054,0.042159999999999975,4.99972120164681,0.040577676366185214,-0.05303827271244213,0
1055,0.042200000000000015,5.000049991798719,0.043865574808886185,-0.05628509380166641,0
1056,0.042240000000000055,5.000378781950543,0.04912621234330475,-0.061504522486842045,0
1057,0.042280000000000095,5.000049991798719,0.050112581884580176,-0.06244955220356194,0
1058,0.04231999999999991,5.000049991798719,0.052414110818605225,-0.06470961085949642,0
1059,0.04235999999999995,5.000707572102282,0.06293538602358648,-0.07518928585594822,0
1060,0.04239999999999999,5.000049991798719,0.0672096541121064,-0.07942182432990891,0
1061,0.04244000000000003,5.000378781950543,0.07444303092521187,-0.08661334264814213,0
1062,0.04248000000000007,5.000378781950543,0.07411424106876553,-0.08624256594352941,0
1063,0.04252000000000011,5.000049991798719,0.07247029178839723,-0.08455650199001616,0
1064,0.04255999999999993,5.000049991798719,0.0731278715001718,-0.08517183973327397,0
1065,0.04259999999999997,4.999392411494816,0.06918239323698341,-0.08118399273708926,0
1066,0.04264000000000001,5.000049991798719,0.061949016467688606,-0.0739081210024912,0
1067,0.04268000000000005,4.99972120164681,0.05438684990979273,-0.06630333378043207,0
1068,0.04272000000000009,5.000378781950543,0.04353678496405114,-0.05541052300638316,0
1069,0.04275999999999991,5.000378781950543,0.03400187951848738,-0.04583274710434743,0
1070,0.04279999999999995,4.99972120164681,0.019206336795484613,-0.03099420983394538,0
1071,0.04283999999999999,5.000049991798719,0.001780475694892425,-0.013525230633516058,0
1072,0.04288000000000003,5.000049991798719,-0.0090695885834889,-0.002631925242595645,0
1073,0.04292000000000007,5.000707572102282,-0.026495449102891075,0.01483729886107095,0
1074,0.04296000000000011,5.000378781950543,-0.03800309264438971,0.026388427916347282,0
1075,0.04299999999999993,5.000378781950543,-0.048853156410254436,0.037282098582061315,0
1076,0.04303999999999997,5.000378781950543,-0.06101837925283336,0.04949104916589558,0
1077,0.04308000000000001,5.000049991798719,-0.07055328351864205,0.059069801468481765,0
1078,0.04312000000000005,5.000049991798719,-0.07943060808137585,0.06799109381641893,0
1079,0.04316000000000009,5.000049991798719,-0.09060946109885244,0.0792140338192216,0
1080,0.043199999999999905,5.000049991798719,-0.09751404671038476,0.08616282506669841,0
1081,0.043239999999999945,5.000049991798719,-0.10672016076886852,0.09541326286104543,0
1082,0.043279999999999985,5.000378781950543,-0.1100080586218566,0.09874560199792615,0
1083,0.043320000000000025,5.000049991798719,-0.1103368484064295,0.099118950061348,0
1084,0.043360000000000065,5.000049991798719,-0.12020054188215752,0.10902731825663015,0
1085,0.043400000000000105,5.000049991798719,-0.12874907613137498,0.11762064311068365,0
1086,0.04343999999999992,5.001036362253937,-0.1336809227727903,0.12259739568562764,0
1087,0.04347999999999996,4.99972120164681,-0.14157187733677873,0.1305333709540875,0
1088,0.04352,5.000707572102282,-0.16097047364631673,0.1499771021801354,0
1089,0.04356000000000004,4.99972120164681,-0.17083416650610883,0.1598860436084228,0
1090,0.04360000000000008,4.99972120164681,-0.1869448645830749,0.17604210334467343,0
1091,0.0436399999999999,5.001365152405508,-0.20831619826529435,0.19745891121463344,0
1092,0.04367999999999994,4.99972120164681,-0.2260708442715611,0.21525914337363197,0
1093,0.04371999999999998,5.001036362253937,-0.24579822825451764,0.23503222490972098,0
1094,0.04376000000000002,4.997419670581074,-0.27571809301437356,0.2649978980573998,0
1095,0.04380000000000006,5.000378781950543,-0.29314394778412045,0.2824696714828364,0
1096,0.0438400000000001,5.000378781950543,-0.3181319652587298,0.3075037173130715,0
1097,0.04387999999999992,5.000707572102282,-0.32437896950050266,0.31379685904137494,0
1098,0.04391999999999996,4.999392411494816,-0.34476393035565245,0.3342280659438337,0
1099,0.04396,4.99972120164681,-0.3523260931149209,0.34183658273997425,0
1100,0.04400000000000004,5.001036362253937,-0.3598882557989115,0.3494452068781019,0
1101,0.04404000000000008,5.000049991798719,-0.36580647002071953,0.35540998939793694,0
1102,0.0440799999999999,5.000049991798719,-0.3615322041984969,0.3511823981431854,0
1103,0.04411999999999994,5.000049991798719,-0.3598882557989115,0.34958523000500463,0
1104,0.04415999999999998,5.000049991798719,-0.35133972406362957,0.3410835836484917,0
1105,0.04420000000000002,5.000049991798719,-0.3365441881408295,0.3263350376442037,0
1106,0.04424000000000006,4.99972120164681,-0.3322699221541244,0.32210786553708654,0
1107,0.0442800000000001,4.99972120164681,-0.317803175560385,0.30768831620430426,0
1108,0.044319999999999915,4.99972120164681,-0.30136369046386896,0.291296131169374,0
1109,0.044359999999999955,4.99972120164681,-0.28722573300058957,0.27720557598654083,0
1110,0.044399999999999995,4.99972120164681,-0.2658544014620183,0.2558817483644865,0
1111,0.044440000000000035,5.000378781950543,-0.24481185906712527,0.23488681093837604,0
1112,0.044480000000000075,4.999392411494816,-0.21554957261220803,0.2056722299196922,0
1113,0.044520000000000115,5.000049991798719,-0.1938494493738635,0.18401991199921436,0
1114,0.04455999999999993,5.000049991798719,-0.17083416650610883,0.16105253374414538,0
1115,0.04459999999999997,4.999392411494816,-0.14979162159258003,0.1400579921503169,0
1116,0.04464000000000001,5.000049991798719,-0.13269455344690018,0.12300902544256345,0
1117,0.04468000000000005,5.000378781950543,-0.11461111559385707,0.10497378655590647,0
1118,0.04472000000000009,4.99972120164681,-0.0971852569206733,0.08759622378683038,0
1119,0.04475999999999991,5.000378781950543,-0.07548513050968754,0.06594448962597019,0
1120,0.04479999999999995,5.000049991798719,-0.058716850620562686,0.04922469774032562,0
1121,0.04483999999999999,5.000049991798719,-0.04819557679208804,0.03875200707506961,0
1122,0.04488000000000003,5.000049991798719,-0.04030462133375036,0.030909729345125397,0
1123,0.04492000000000007,5.000378781950543,-0.031098506538410467,0.021752386247849573,0
1124,0.04496000000000011,5.000049991798719,-0.018275703619711994,0.008978448400446815,0
1125,0.04499999999999993,5.000049991798719,-0.02090602218305261,0.011657724810947595,0
1126,0.04503999999999997,5.000049991798719,-0.010384747880516562,0.0011855005331471158,0
1127,0.04508000000000001,4.99972120164681,-0.002165002240582567,-0.006985103503680645,0
1128,0.04512000000000005,5.000049991798719,0.001780475694892425,-0.010881348857792766,0
1129,0.04516000000000009,4.999392411494816,0.008356272294735026,-0.017407822499032916,0
1130,0.04519999999999991,4.99972120164681,0.005397163818512657,-0.014399301288882393,0
1131,0.04523999999999995,5.000378781950543,0.008027482463535476,-0.016980118027455526,0
1132,0.04527999999999999,4.99972120164681,0.008027482463535476,-0.016930527552172253,0
1133,0.04532000000000003,5.000378781950543,0.013616909611190692,-0.022470276260276062,0
1134,0.04536000000000007,5.000049991798719,0.017233597785083862,-0.02603719863578638,0
1135,0.04540000000000011,4.99972120164681,0.02117907581044083,-0.029932824110230738,0
1136,0.045439999999999925,4.99972120164681,0.026110923367741706,-0.034814732971249235,0
1137,0.045479999999999965,5.000049991798719,0.030056401434036775,-0.03871018680390431,0
1138,0.045520000000000005,5.000049991798719,0.03400187951848738,-0.042605555726215216,0
1139,0.045560000000000045,5.000049991798719,0.04024888652260587,-0.048802369249391464,0
1140,0.045600000000000085,5.000049991798719,0.0392625169926218,-0.047765722530192706,0
1141,0.0456399999999999,4.99972120164681,0.04846863264974746,-0.05692147790118804,0
1142,0.04567999999999994,5.000049991798719,0.05603079915588792,-0.06443320163645933,0
1143,0.04571999999999998,5.000378781950543,0.06425054543319586,-0.07260242327114932,0
1144,0.04576000000000002,4.99972120164681,0.06688086425839593,-0.07518213619577918,0
1145,0.04580000000000006,4.99972120164681,0.07181271207711976,-0.08006329747057678,0
1146,0.0458400000000001,4.99972120164681,0.07444303092521187,-0.08264284974677619,0
1147,0.04587999999999992,5.000049991798719,0.0757581903522391,-0.08390716319012065,0
1148,0.04591999999999996,4.99972120164681,0.07641577006649763,-0.08451381812586267,0
1149,0.04596,5.000378781950543,0.07805971935431567,-0.08610676445806034,0
1150,0.04600000000000004,4.99972120164681,0.07641577006649763,-0.08441173465601479,0
1151,0.04604000000000008,5.000049991798719,0.0714839222216675,-0.07942872935760728,0
1152,0.0460799999999999,5.000378781950543,0.06753844396594139,-0.07543201732896523,0
1153,0.04611999999999994,5.000049991798719,0.06523691499171154,-0.07307917888323964,0
1154,0.04615999999999998,4.999392411494816,0.059647487508292976,-0.06743836685124541,0
1155,0.04620000000000002,5.000049991798719,0.05340048036363608,-0.0611399007031673,0
1156,0.04624000000000006,4.99972120164681,0.05274290066682373,-0.0604307881710506,0
1157,0.0462800000000001,4.999392411494816,0.04419436465384674,-0.051830646114569695,0
1158,0.04631999999999992,4.99972120164681,0.041564045897676996,-0.049148648731094424,0
1159,0.04635999999999996,5.000049991798719,0.033015509995673945,-0.040548362243090025,0
1160,0.0464,5.000049991798719,0.025453343691792682,-0.03293437402031829,0
1161,0.04644000000000004,4.99972120164681,0.022823024993048696,-0.030252162696295867,0
1162,0.04648000000000008,5.000049991798719,0.017233597785083862,-0.02461077278385365,0
1163,0.046519999999999895,5.001036362253937,0.012301750279031881,-0.0196268931219956,0
1164,0.046559999999999935,5.000378781950543,0.01295932994485767,-0.02023237180923157,0
1165,0.046599999999999975,4.99972120164681,0.005725953648695714,-0.01294682634090856,0
1166,0.046640000000000015,5.000049991798719,0.005397163818512657,-0.012565799774866604,0
1167,0.046680000000000055,5.000049991798719,-0.0015074225859438989,-0.005608909701380657,0
1168,0.046720000000000095,5.000049991798719,-0.004137741201439435,-0.0029262211148597533,0
1169,0.04675999999999991,5.000378781950543,-0.005452900506126915,-0.001558626168965599,0
1170,0.04679999999999995,5.000378781950543,-0.014330225759327644,0.007371199763174921,0
1171,0.04683999999999999,5.000049991798719,0.00013652655288240445,-0.007042987465437259,0
1172,0.04688000000000003,5.000378781950543,-0.005124110680146385,-0.0017297213778476733,0
1173,0.04692000000000007,5.000049991798719,-0.007096849634115457,0.00029570956733680764,0
1174,0.04696000000000011,5.000049991798719,-0.007096849634115457,0.00034846406029206967,0
1175,0.04699999999999993,4.99972120164681,-0.0113711173519455,0.004675548137302879,0
1176,0.04703999999999997,5.000378781950543,-0.00808321910937683,0.0014405274840333937,0
1177,0.04708000000000001,5.000049991798719,-0.007096849634115457,0.0005070961914967614,0
1178,0.04712000000000005,5.000049991798719,-0.0031513717215847087,-0.00338538358215551,0
1179,0.04716000000000009,5.000049991798719,0.00013652655288240445,-0.00662022439943441,0
1180,0.04719999999999991,5.000049991798719,0.0014516858662357995,-0.007882267575699167,0
1181,0.04723999999999995,5.000378781950543,0.0030956350107915753,-0.009473042542233537,0
1182,0.04727999999999999,4.99972120164681,0.004082004499051814,-0.010406180451058747,0
1183,0.04732000000000003,5.000049991798719,0.006712323140007484,-0.012983210751229587,0
1184,0.04736000000000007,5.000049991798719,0.0076986926324629085,-0.013916235782152037,0
1185,0.04740000000000011,5.000049991798719,0.011315380781244458,-0.017479523989785015,0
1186,0.04743999999999993,5.000049991798719,0.016576018115963126,-0.022686706545396285,0
1187,0.04747999999999997,5.000378781950543,0.019863916466630674,-0.02592109592117149,0
1188,0.04752000000000001,5.000378781950543,0.025782133529704057,-0.0317857504562518,0
1189,0.04756000000000005,5.000049991798719,0.02216544531962629,-0.028115446808267802,0
1190,0.04760000000000009,4.99972120164681,0.03268672015498804,-0.0385830539394941,0
1191,0.047639999999999905,5.000378781950543,0.0392625169926218,-0.04510513145093667,0
1192,0.047679999999999945,5.000378781950543,0.04287920527475757,-0.0486680494294815,0
1193,0.047719999999999985,4.99972120164681,0.05340048036363608,-0.05913550388250097,0
1194,0.047760000000000025,5.000378781950543,0.06425054543319586,-0.06993169862953387,0
1195,0.047800000000000065,5.000707572102282,0.07082634251113593,-0.07645357634434102,0
1196,0.047840000000000105,5.000049991798719,0.08167640779842875,-0.08724967387441135,0
1197,0.04787999999999992,4.99972120164681,0.09515679213113215,-0.10067604270276695,0
1198,0.04791999999999996,4.99972120164681,0.10074621984212842,-0.10621140780969501,0
1199,0.04796,5.000049991798719,0.10995233614951355,-0.11536341506113021,0
1200,0.04800000000000004,5.000378781950543,0.1270494095467647,-0.13240633359881526,0
1201,0.04804000000000008,5.000378781950543,0.12803577917591782,-0.13333850321347174,0
1202,0.0480799999999999,4.99972120164681,0.13789947552773896,-0.14314795504496428,0
1203,0.04811999999999994,4.99972120164681,0.14579043268794922,-0.15098462382851893,0
1204,0.04815999999999998,5.000378781950543,0.15269502026039275,-0.1578348798178834,0
1205,0.04820000000000002,5.000378781950543,0.15762686855906824,-0.1627123539773522,0
1206,0.04824000000000006,4.99972120164681,0.16288750677424663,-0.16791857614787664,0
1207,0.0482800000000001,5.000049991798719,0.17275120351076823,-0.177727815585355,0
1208,0.04831999999999992,4.999392411494816,0.1819573205623241,-0.18687943473490679,0
1209,0.04835999999999996,5.000707572102282,0.18951948821056797,-0.1943870645299779,0
1210,0.0484,5.000707572102282,0.19576649631542703,-0.2005794954826443,0
1211,0.04844000000000004,5.000049991798719,0.20201350446326316,-0.20677188783176625,0
1212,0.04848000000000008,4.99972120164681,0.20365745398298266,-0.20836118355909086,0
1213,0.0485199999999999,5.000049991798719,0.21023325209152194,-0.21488229053473054,0
1214,0.04855999999999994,4.99972120164681,0.21121962181189158,-0.21581393243520045,0
1215,0.04859999999999998,4.99972120164681,0.22009694934312324,-0.22463649611335726,0
1216,0.04864000000000002,4.99972120164681,0.22667274756988962,-0.23115749510801267,0
1217,0.04868000000000006,5.000378781950543,0.23160459627087698,-0.23603450985229887,0
1218,0.0487200000000001,5.000049991798719,0.23949555424744107,-0.24387059980231648,0
1219,0.048759999999999915,5.000049991798719,0.24541377277417437,-0.24973391688769506,0
1220,0.048799999999999955,4.99972120164681,0.2539623107129931,-0.25822752062567217,0
1221,0.048839999999999995,4.99972120164681,0.26185326888031846,-0.26606351248826776,0
1222,0.048880000000000035,5.000049991798719,0.27368970625679245,-0.277844952111992,0
1223,0.048920000000000075,5.000707572102282,0.28618372365023836,-0.2902839409607992,0
1224,0.048960000000000115,5.000378781950543,0.29736258145910344,-0.3014077400895234,0
1225,0.04899999999999993,5.000049991798719,0.3019656405954552,-0.30595571106686764,0
1226,0.04903999999999997,5.000707572102282,0.310185389109042,-0.31412034259945626,0
1227,0.04908000000000001,5.000049991798719,0.31347328853447315,-0.31735309687900953,0
1228,0.04912000000000005,5.000049991798719,0.3164323980271135,-0.3202570337182304,0
1229,0.04916000000000009,5.000049991798719,0.3184051376940012,-0.3221745738817147,0
1230,0.04919999999999991,5.000049991798719,0.31347328853447315,-0.3171874990265696,0
1231,0.04923999999999995,4.99972120164681,0.3049247500521106,-0.30858370931435125,0
1232,0.04927999999999999,5.000378781950543,0.29177315253805675,-0.2953768356943758,0
1233,0.04932000000000003,5.000049991798719,0.27829276527707864,-0.28184114810977373,0
1234,0.04936000000000007,5.000707572102282,0.2605381091811092,-0.26403116813102406,0
1235,0.04940000000000011,5.000378781950543,0.2421258735879729,-0.24556358575467274,0
1236,0.04943999999999993,5.000378781950543,0.22634395765743187,-0.22972630079937112,0
1237,0.04947999999999997,4.99972120164681,0.20530140350567,-0.20862835604035335,0
1238,0.04952000000000001,5.000049991798719,0.18590279932743567,-0.1891743403315709,0
1239,0.04956000000000005,5.000707572102282,0.1658466157838382,-0.16906272499348177,0
1240,0.04960000000000009,5.000049991798719,0.1415161642174927,-0.14467682202818805,0
1241,0.049639999999999906,5.000378781950543,0.12441909054105722,-0.12752427800796579,0
1242,0.049679999999999946,5.000049991798719,0.10370532864470776,-0.10675502748273263,0
1243,0.049719999999999986,4.999392411494816,0.0902249441804355,-0.09321913676433811,0
1244,0.049760000000000026,5.000049991798719,0.07510061063847716,-0.0780392800029864,0
1245,0.049800000000000066,4.99972120164681,0.06063385706157101,-0.06351698690148481,0
1246,0.049840000000000106,5.000378781950543,0.04715347326413659,-0.049981047934416115,0
1247,0.049879999999999924,5.000707572102282,0.033673089677423634,-0.036445094193280195,0
1248,0.049919999999999964,5.000378781950543,0.023480604666976643,-0.026197024703951202,0
1249,0.049960000000000004,5.000378781950543,0.010000221452637598,-0.01266104334667291,0
1250,0.050000000000000044,5.000378781950543,0.0027668451816259126,-0.005372055929131148,0
1251,0.050040000000000084,5.001036362253937,-0.005124110680146385,0.0025745234222383645,0
1252,0.0500799999999999,4.99972120164681,-0.006439269983302923,0.003945317897485756,0
1253,0.05011999999999994,4.999392411494816,-0.00874079875891258,0.0063024928670639,0
1254,0.05015999999999998,5.000378781950543,-0.010713537704454032,0.008330888367800451,0
1255,0.05020000000000002,4.99972120164681,-0.00939837840793746,0.007071395327026858,0
1256,0.05024000000000006,4.99972120164681,-0.011042327528263687,0.008771019742944891,0
1257,0.0502800000000001,5.000707572102282,-0.012028696998925656,0.009813072888335397,0
1258,0.05031999999999992,5.000049991798719,-0.0113711173519455,0.00921118463450274,0
1259,0.05035999999999996,5.000049991798719,-0.004466531027802631,0.0023622967612103307,0
1260,0.0504,5.000378781950543,-0.0028225818947114484,0.0007740524759657225,0
1261,0.05044000000000004,4.999392411494816,-0.00019226327513760522,-0.0018005555594556438,0
1262,0.05048000000000008,5.000707572102282,0.0021092655236763236,-0.004046368698477326,0
1263,0.0505199999999999,4.99972120164681,0.005397163818512657,-0.007278546918516496,0
1264,0.05055999999999994,5.000378781950543,0.0030956350107915753,-0.004921294281589439,0
1265,0.05059999999999998,5.000378781950543,0.009671431620803153,-0.011441363968536178,0
1266,0.05064000000000002,5.000049991798719,0.010000221452637598,-0.011714424443943328,0
1267,0.05068000000000006,4.99972120164681,0.01295932994485767,-0.014617801806808967,0
1268,0.0507200000000001,5.000707572102282,0.016576018115963126,-0.018178757735999758,0
1269,0.050759999999999916,5.000049991798719,0.01953512663099438,-0.021082133556847155,0
1270,0.050799999999999956,5.000049991798719,0.021507865646709548,-0.02299914008631699,0
1271,0.050839999999999996,5.000049991798719,0.021507865646709548,-0.02294340846812732,0
1272,0.050880000000000036,5.000378781950543,0.021836655483104705,-0.02321646821440749,0
1273,0.050920000000000076,4.999392411494816,0.02315181482994949,-0.024475899659125507,0
1274,0.050960000000000116,5.000049991798719,0.025124553854007567,-0.02639291362884571,0
1275,0.050999999999999934,5.000707572102282,0.025782133529704057,-0.0269947717576735,0
1276,0.051039999999999974,5.000049991798719,0.0264397132059056,-0.027596634054027992,0
1277,0.051080000000000014,5.000049991798719,0.02216544531962629,-0.02326665361434059,0
1278,0.051120000000000054,5.000049991798719,0.02216544531962629,-0.02321094654664632,0
1279,0.051160000000000094,5.000049991798719,0.017233597785083862,-0.018223398089248416,0
1280,0.05119999999999991,5.000049991798719,0.011972960446309217,-0.01290706663142456,0
1281,0.05123999999999995,4.99972120164681,0.011315380781244458,-0.012193800309919553,0
1282,0.05127999999999999,5.000049991798719,0.006712323140007484,-0.007535064133481845,0
1283,0.05132000000000003,5.000049991798719,0.0027668451816259126,-0.003533916419590055,0
1284,0.05136000000000007,5.000049991798719,0.001122896037706475,-0.0018343069581149701,0
1285,0.05140000000000011,5.000378781950543,-0.002165002240582567,0.0015092415417053834,0
1286,0.05143999999999993,5.000378781950543,-0.0113711173519455,0.010770996120707213,0
1287,0.05147999999999997,5.000378781950543,-0.013672646114138112,0.013128152938987253,0
1288,0.05152000000000001,5.000707572102282,-0.014987805404005308,0.014498928215947768,0
1289,0.05156000000000005,5.000049991798719,-0.01860449344057817,0.018171219513401088,0
1290,0.05160000000000009,4.99972120164681,-0.0166317545134594,0.01625407046396249,0
1291,0.05163999999999991,5.000378781950543,-0.017618123977595282,0.01729601576582951,0
1292,0.05167999999999995,4.99972120164681,-0.0228787611001723,0.02261221402968608,0
1293,0.05171999999999999,4.998734831190575,-0.01991965272276132,0.01970865144085404,0
1294,0.05176000000000003,5.000378781950543,-0.026824238920549456,0.026668767418532607,0
1295,0.05180000000000007,4.99972120164681,-0.021563601822605624,0.02146364343607124,0
1296,0.05184000000000011,5.000049991798719,-0.01860449344057817,0.018560030849674877,0
1297,0.051879999999999926,5.001036362253937,-0.023865130556999917,0.023876145786716263,0
1298,0.051919999999999966,4.99972120164681,-0.022549971280973066,0.022616445701428373,0
1299,0.051960000000000006,5.001693942556992,-0.025509079649145103,0.025630993975887736,0
1300,0.052000000000000046,5.001693942556992,-0.0228787611001723,0.02305609539448518,0
1301,0.052040000000000086,4.997419670581074,-0.026166659285104213,0.026399392954317785,0
1302,0.052079999999999904,5.003337893313145,-0.01991965272276132,0.020207764520573948,0
1303,0.052119999999999944,4.999392411494816,-0.02320755091924319,0.023551018946049038,0
1304,0.052159999999999984,4.998406041038327,-0.018275703619711994,0.01867450532293642,0
1305,0.052200000000000024,4.999392411494816,-0.021234812002893247,0.021688924177335492,0
1306,0.052240000000000064,5.001036362253937,-0.024851500012672237,0.02536089880085561,0
1307,0.052280000000000104,4.99972120164681,-0.021234812002893247,0.021799472895422778,0
1308,0.05231999999999992,5.000707572102282,-0.025837869467188898,0.026457767303116372,0
1309,0.05235999999999996,5.000378781950543,-0.024193920375685754,0.024869029342882085,0
1310,0.0524,5.000707572102282,-0.025509079649145103,0.026239373284680123,0
1311,0.05244000000000004,5.000049991798719,-0.020248442542986647,0.02103389373351619,0
1312,0.05248000000000008,5.000049991798719,-0.019590862902407788,0.020431443884567968,0
1313,0.0525199999999999,4.998406041038327,-0.024522710194243194,0.02541839255505203,0
1314,0.05255999999999994,4.99972120164681,-0.024851500012672237,0.02580225468993859,0
1315,0.05259999999999998,5.001365152405508,-0.025509079649145103,0.026514876931884757,0
1316,0.05264000000000002,5.000378781950543,-0.02715302873807933,0.028213838266938282,0
1317,0.05268000000000006,5.000378781950543,-0.024851500012672237,0.02596729078035727,0
1318,0.0527200000000001,5.000049991798719,-0.018933283261316228,0.02010402361303268,0
1319,0.05275999999999992,4.99972120164681,-0.024193920375685754,0.025419578009582874,0
1320,0.05279999999999996,5.000378781950543,-0.023865130556999917,0.025145672524623436,0
1321,0.05284,5.000378781950543,-0.02320755091924319,0.02454294362599517,0
1322,0.05288000000000004,5.000049991798719,-0.023865130556999917,0.025255339762605647,0
1323,0.05292000000000008,5.000378781950543,-0.028468188006913683,0.029913178825895864,0
1324,0.052959999999999896,4.99972120164681,-0.026166659285104213,0.027666396187264658,0
1325,0.052999999999999936,4.99972120164681,-0.021234812002893247,0.022789258813801824,0
1326,0.053039999999999976,5.000378781950543,-0.020248442542986647,0.0218575624444778,0
1327,0.053080000000000016,5.000049991798719,-0.02090602218305261,0.022569777713729047,0
1328,0.053120000000000056,5.000049991798719,-0.022549971280973066,0.024268324336716718,0
1329,0.053160000000000096,5.000049991798719,-0.0228787611001723,0.024651672934662458,0
1330,0.053199999999999914,4.99972120164681,-0.026166659285104213,0.027994090510342753,0
1331,0.053239999999999954,4.99972120164681,-0.025509079649145103,0.02739099023598905,0
1332,0.053279999999999994,4.99972120164681,-0.023865130556999917,0.02580147983570112,0
1333,0.053320000000000034,5.000049991798719,-0.0228787611001723,0.024869507760924586,0
1334,0.053360000000000074,5.000378781950543,-0.0228787611001723,0.024923863193665893,0
1335,0.053400000000000114,5.000049991798719,-0.024193920375685754,0.02629333531366912,0
1336,0.05343999999999993,5.000049991798719,-0.024522710194243194,0.026676394750092133,0
1337,0.05347999999999997,5.000049991798719,-0.022549971280973066,0.024757881590267122,0
1338,0.05352000000000001,4.99972120164681,-0.026166659285104213,0.02842875084621023,0
1339,0.05356000000000005,5.000049991798719,-0.026166659285104213,0.02848288695976714,0
1340,0.05360000000000009,5.000378781950543,-0.021234812002893247,0.023605130016834105,0
1341,0.05363999999999991,5.000049991798719,-0.019590862902407788,0.02201522484592887,0
1342,0.05367999999999995,4.99972120164681,-0.01564538504817102,0.018123743876768197,0
1343,0.05371999999999999,5.000049991798719,-0.017618123977595282,0.020150432012577588,0
1344,0.05376000000000003,5.000049991798719,-0.01630296469182467,0.018889173620941155,0
1345,0.05380000000000007,5.000378781950543,-0.01564538504817102,0.01828544592624469,0
1346,0.05384000000000011,4.999392411494816,-0.015316595226152155,0.018010458475721206,0
1347,0.05387999999999993,5.000049991798719,-0.010384747880516562,0.013132363292482796,0
1348,0.05391999999999997,5.000049991798719,-0.006768059808773,0.009569376543057381,0
1349,0.05396000000000001,5.000049991798719,-0.00874079875891258,0.011595765345117998,0
1350,0.05400000000000005,5.000378781950543,-0.0031513717215847087,0.006059936059665871,0
1351,0.05404000000000009,5.000378781950543,-0.00348016154833046,0.006442270909270936,0
1352,0.054079999999999906,5.001365152405508,-0.0031513717215847087,0.006166972748081104,0
1353,0.054119999999999946,4.99972120164681,-0.003808951374948702,0.006877990082101923,0
1354,0.054159999999999986,5.000049991798719,-0.0028225818947114484,0.005945003670725008,0
1355,0.054200000000000026,5.000049991798719,-0.0018362124133269458,0.005011962020212465,0
1356,0.054240000000000066,4.99972120164681,-0.0008498429307955274,0.004078864505085364,0
1357,0.054280000000000106,4.99972120164681,-0.0008498429307955274,0.004132079984262502,0
1358,0.054319999999999924,5.000378781950543,-0.002165002240582567,0.005500397660966813,0
1359,0.054359999999999964,4.99972120164681,-0.0015074225859438989,0.004895918637686805,0
1360,0.054400000000000004,5.000378781950543,-0.0018362124133269458,0.0052777507383121175,0
1361,0.054440000000000044,5.000049991798719,-0.00348016154833046,0.006974683166631787,0
1362,0.054480000000000084,5.000049991798719,0.004082004499051814,-0.0005345591884150375,0
1363,0.0545199999999999,4.99972120164681,0.0021092655236763236,0.001491043258022795,0
1364,0.05455999999999994,5.000378781950543,0.006383533309443135,-0.0027304218974780053,0
1365,0.05459999999999998,5.000049991798719,0.0021092655236763236,0.0015965870590115144,0
1366,0.05464000000000002,5.000049991798719,0.005397163818512657,-0.001638632142609009,0
1367,0.05468000000000006,5.000049991798719,0.005397163818512657,-0.0015860157440732575,0
1368,0.0547200000000001,5.000707572102282,0.0030956350107915753,0.0007680661511277193,0
1369,0.05475999999999992,5.000378781950543,0.008027482463535476,-0.004111292140763487,0
1370,0.05479999999999996,4.99972120164681,0.009671431620803153,-0.005702816678565634,0
1371,0.05484,5.000049991798719,0.011315380781244458,-0.007294406374869999,0
1372,0.05488000000000004,4.99972120164681,0.014603279111640999,-0.01053001100957418,0
1373,0.05492000000000008,5.000378781950543,0.011972960446309217,-0.007847465029278189,0
1374,0.0549599999999999,5.000378781950543,0.016576018115963126,-0.012398362376140164,0
1375,0.05499999999999994,5.000378781950543,0.015260858779241576,-0.01103111031939661,0
1376,0.05503999999999998,5.000707572102282,0.018548757124844717,-0.01426698415749187,0
1377,0.05508000000000002,4.999392411494816,0.02216544531962629,-0.017831716666163545,0
1378,0.05512000000000006,4.99972120164681,0.023809394504130166,-0.01942377959397211,0
1379,0.0551600000000001,5.000378781950543,0.028083662398618273,-0.023646231268321924,0
1380,0.055199999999999916,4.99972120164681,0.0264397132059056,-0.021950536498289284,0
1381,0.055239999999999956,5.000378781950543,0.025453343691792682,-0.020912492655047882,0
1382,0.055279999999999996,5.000378781950543,0.023480604666976643,-0.01888815115377323,0
1383,0.055320000000000036,5.000049991798719,0.023480604666976643,-0.018836621133561195,0
1384,0.055360000000000076,5.000378781950543,0.027097292882612076,-0.0224018523878994,0
1385,0.055400000000000116,4.999392411494816,0.024795764016348754,-0.020048940221006353,0
1386,0.055439999999999934,5.000049991798719,0.02085028597429857,-0.016052153139824207,0
1387,0.055479999999999974,5.000707572102282,0.016247228281592724,-0.011397861269385204,0
1388,0.055520000000000014,4.99972120164681,0.013945699444547363,-0.009045173714970378,0
1389,0.055560000000000054,4.99972120164681,0.006712323140007484,-0.001760714751446693,0
1390,0.055600000000000094,4.999392411494816,0.004410794328726292,0.0005918200633604764,0
1391,0.05563999999999991,5.000378781950543,0.0004653163810297567,0.004588226763009615,0
1392,0.05567999999999995,5.000378781950543,-0.0005210531030302584,0.005625447152296681,0
1393,0.05571999999999999,5.000049991798719,-0.0028225818947114484,0.007977748408297389,0
1394,0.05576000000000003,5.000049991798719,-0.00348016154833046,0.008686021492123414,0
1395,0.05580000000000007,5.000049991798719,-0.010384747880516562,0.01564122162818285,0
1396,0.05584000000000011,4.99972120164681,-0.014330225759327644,0.019637233093303064,0
1397,0.05587999999999993,4.99972120164681,-0.01926207308192608,0.024619533194413262,0
1398,0.05591999999999997,4.99972120164681,-0.020248442542986647,0.025656274036959165,0
1399,0.05596000000000001,5.000378781950543,-0.01860449344057817,0.024062614330791335,0
1400,0.05600000000000005,5.000378781950543,-0.020248442542986647,0.025756770256994937,0
