,seconds,Trig,EMG_amplitude,EMG_amplitude_filter,peaks
0,0.0,5.000049991798719,-0.014001435936796827,-0.013736041834192067,0
1,4.0000000000040004e-05,5.000378781950543,-0.013343856291351444,-0.014328737962481866,0
2,8.000000000008001e-05,5.000049991798719,-0.012686276645394332,-0.014921498963864986,0
3,0.00011999999999989797,5.000378781950543,-0.009727168232258263,-0.017815853899957164,0
4,0.00015999999999993797,4.99972120164681,-0.006110480157705198,-0.02136785395933443,0
5,0.00019999999999997797,5.000707572102282,-0.0005210531030302584,-0.026892658754425813,0
6,0.00024000000000001798,5.000378781950543,-0.0028225818947114484,-0.024526573751860126,0
7,0.000280000000000058,5.000378781950543,0.003424424840084442,-0.030709090616956716,0
8,0.000320000000000098,4.999063621342738,0.0030956350107915753,-0.030315877551011804,0
9,0.00035999999999991594,5.000049991798719,0.008685062126061585,-0.03584094835391169,0
10,0.00039999999999995595,5.000707572102282,0.01295932994485767,-0.04005092707522345,0
11,0.00043999999999999595,5.000049991798719,0.01756238761983417,-0.044589763157571294,0
12,0.00048000000000003595,5.000378781950543,0.020521496138282788,-0.04748471787757948,0
13,0.000520000000000076,5.001036362253937,0.02117907581044083,-0.04807821183417722,0
14,0.0005599999999998939,5.000378781950543,0.025453343691792682,-0.05228846237089689,0
15,0.0005999999999999339,5.000378781950543,0.027754872559823354,-0.054526042552624374,0
16,0.0006399999999999739,5.000378781950543,0.031700350633686175,-0.058407640885263415,0
17,0.0006800000000000139,5.000378781950543,0.03663219825152894,-0.06327567799305864,0
18,0.0007200000000000539,5.000049991798719,0.04024888652260587,-0.0668286252707043,0
19,0.0007600000000000939,5.000049991798719,0.04123525605372079,-0.06775132360978398,0
20,0.0007999999999999119,5.000378781950543,0.045838313880531376,-0.07229078033007182,0
21,0.0008399999999999519,5.000378781950543,0.04879742249646346,-0.07518635820844335,0
22,0.0008799999999999919,4.99972120164681,0.05603079915588792,-0.08235627478204903,0
23,0.0009200000000000319,5.000707572102282,0.05537321945707481,-0.08163530593126507,0
24,0.0009600000000000719,5.000049991798719,0.05997627735926084,-0.08617504589675759,0
25,0.001000000000000112,5.000049991798719,0.06293538602358648,-0.0890709081204164,0
26,0.0010399999999999299,5.000049991798719,0.06425054543319586,-0.09032289286545153,0
27,0.0010799999999999699,5.000378781950543,0.06556570484479929,-0.09157494966795265,0
28,0.0011200000000000099,4.99972120164681,0.07049755265605667,-0.09644376720426916,0
29,0.0011600000000000499,5.000378781950543,0.07345666135624548,-0.09933991824167501,0
30,0.0012000000000000899,5.000378781950543,0.08233398751715135,-0.10815435962925615,0
31,0.0012399999999999078,5.000049991798719,0.09219768335738154,-0.11795524386222059,0
32,0.0012799999999999478,5.000378781950543,0.09154010363123893,-0.11723492597076915,0
33,0.0013199999999999878,5.001365152405508,0.10107500970858954,-0.12670716759995976,0
34,0.0013600000000000279,5.000378781950543,0.10534927798377816,-0.13091884541861987,0
35,0.0014000000000000679,5.000378781950543,0.11882966267987906,-0.1443367139235934,0
36,0.0014400000000001079,4.99972120164681,0.1257342500429348,-0.15117885963397631,0
37,0.0014799999999999258,5.000378781950543,0.13263883745980184,-0.15802108020895858,0
38,0.0015199999999999658,5.000378781950543,0.14644801245445316,-0.17176796344412334,0
39,0.0015600000000000058,4.99972120164681,0.15368138991795355,-0.1789391245014191,0
40,0.0016000000000000458,5.000378781950543,0.1592708179979958,-0.18446641179869266,0
41,0.0016400000000000858,4.99972120164681,0.16288750677424663,-0.18802103568503176,0
42,0.0016799999999999038,4.99972120164681,0.1655178258934021,-0.19058936607581745,0
43,0.0017199999999999438,5.000707572102282,0.1619011371065503,-0.1869107649900837,0
44,0.0017599999999999838,4.999392411494816,0.16749056523782313,-0.1924383575191664,0
45,0.0018000000000000238,4.99972120164681,0.1592708179979958,-0.18415685164030016,0
46,0.0018400000000000638,5.000378781950543,0.1497359112942392,-0.17456026352636714,0
47,0.0018800000000001038,5.000049991798719,0.1415161642174927,-0.1662789125332671,0
48,0.0019199999999999218,5.000049991798719,0.1270494095467647,-0.15175063170421468,0
49,0.0019599999999999618,4.99972120164681,0.11192507537076382,-0.13656484939136726,0
50,0.0020000000000000018,5.000707572102282,0.10008864010957542,-0.1246670442774986,0
51,0.0020400000000000418,5.000049991798719,0.08364914695608275,-0.10816625981741701,0
52,0.002080000000000082,5.000378781950543,0.06293538602358648,-0.08739128638558157,0
53,0.0021199999999998997,5.000378781950543,0.045509524034943585,-0.06990429096523774,0
54,0.0021599999999999397,5.000378781950543,0.02676850304419573,-0.05110221587004252,0
55,0.0021999999999999797,5.000707572102282,0.008027482463535476,-0.03230022077102754,0
56,0.0022400000000000198,5.000049991798719,-0.014659015581730453,-0.00955282805155927,0
57,0.0022800000000000598,4.99972120164681,-0.03471519450577058,0.010564165445253543,0
58,0.0023200000000000998,5.000049991798719,-0.05378500352999273,0.029694708684327026,0
59,0.0023599999999999177,5.000049991798719,-0.07614271010627514,0.05211306886183646,0
60,0.0023999999999999577,5.000378781950543,-0.10178831396466272,0.07781924545291544,0
61,0.0024399999999999977,5.000378781950543,-0.12874907613137498,0.10484049922966701,0
62,0.0024800000000000377,5.000707572102282,-0.1606416838822417,0.13679351721460242,0
63,0.0025200000000000777,4.99972120164681,-0.19779492637033497,0.17400708830827596,0
64,0.0025599999999998957,5.000049991798719,-0.2359345363248534,0.2122069449881724,0
65,0.0025999999999999357,5.000049991798719,-0.27900599017070005,0.2553385634282877,0
66,0.0026399999999999757,5.000049991798719,-0.3237213901090291,0.30011404557967875,0
67,0.0026800000000000157,4.99972120164681,-0.3730398428956121,0.3494924979488327,0
68,0.0027200000000000557,5.000707572102282,-0.4269613475873073,0.4034739193441397,0
69,0.0027600000000000957,4.99972120164681,-0.4848283238779627,0.461400729211798,0
70,0.0027999999999999137,5.000049991798719,-0.5394073995908286,0.5160395551282291,0
71,0.0028399999999999537,5.000378781950543,-0.5953016294632493,0.5719934515847724,0
72,0.0028799999999999937,5.000049991798719,-0.6508670653767203,0.6276184702177457,0
73,0.0029200000000000337,5.000049991798719,-0.7074188654300575,0.6842297688816178,0
74,0.0029600000000000737,5.000378781950543,-0.7610115553712874,0.7378818730809021,0
75,0.0029999999999998916,5.000049991798719,-0.8172345568233411,0.7941642041958548,0
76,0.0030399999999999316,5.000049991798719,-0.8721423957743695,0.849131287972791,0
77,0.0030799999999999716,4.99972120164681,-0.9306669136800709,0.9077149656264168,0
78,0.0031200000000000117,4.999392411494816,-0.9806429023171626,0.9577500286933018,0
79,0.0031600000000000517,4.99972120164681,-1.0247006785375772,1.0018667937860788,0
80,0.0032000000000000917,5.000049991798719,-1.056264456632401,1.0334894749573822,0
81,0.0032399999999999096,5.000049991798719,-1.0851979184924339,1.0624817538604114,0
82,0.0032799999999999496,4.99972120164681,-1.0980207022970123,1.0753632684377548,0
83,0.0033199999999999896,5.000049991798719,-1.1029525421514508,1.0803537525588347,1
84,0.0033600000000000296,4.99972120164681,-1.092102494420031,1.0695622623528969,0
85,0.0034000000000000696,5.000049991798719,-1.078622131823629,1.0561403703066423,0
86,0.0034400000000001096,5.000049991798719,-1.0585659820565652,1.036142603881078,0
87,0.0034799999999999276,5.000049991798719,-1.0296325189689843,1.0072674366939018,0
88,0.0035199999999999676,5.000049991798719,-0.9970823714127317,0.9747754973653818,0
89,0.0035600000000000076,5.000049991798719,-0.9711080100480793,0.9488592563250839,0
90,0.0036000000000000476,5.000378781950543,-0.940201806548046,0.9180110850161947,0
91,0.0036400000000000876,4.999392411494816,-0.9066652861851379,0.8845325084822667,0
92,0.0036799999999999056,5.000049991798719,-0.8751015007379515,0.8530265782738239,0
93,0.0037199999999999456,5.000049991798719,-0.8501135028499431,0.8280963468071343,0
94,0.0037599999999999856,5.000707572102282,-0.8228239777625562,0.8008644990973415,0
95,0.0038000000000000256,5.000378781950543,-0.7942192936398377,0.772317403083086,0
96,0.0038400000000000656,5.000378781950543,-0.7721903981392853,0.750346006197356,0
97,0.0038800000000001056,4.999063621342738,-0.7475311859056578,0.7257442028612995,0
98,0.0039199999999999235,5.000378781950543,-0.7241871308332756,0.702457466746528,0
99,0.0039599999999999635,5.000049991798719,-0.6995279168632706,0.6778554815723699,0
100,0.0040000000000000036,5.000049991798719,-0.6771702287668184,0.6555549318891047,0
101,0.0040400000000000436,4.99972120164681,-0.6584292249532687,0.6368709758860953,0
102,0.0040800000000000836,5.000049991798719,-0.6285093757150592,0.6070080836367051,0
103,0.0041199999999999015,5.000378781950543,-0.6077956331869823,0.5863512070575683,0
104,0.0041599999999999415,4.99972120164681,-0.5874106796294062,0.5660230281918126,0
105,0.0041999999999999815,5.000378781950543,-0.5726151484546945,0.5512841802354811,0
106,0.0042400000000000215,5.000378781950543,-0.5561756690115732,0.5349012923219002,0
107,0.0042800000000000615,5.000049991798719,-0.5367770827834435,0.5155592057199945,0
108,0.0043200000000001015,4.99972120164681,-0.5236254986025386,0.5024640290484441,0
109,0.0043599999999999195,4.999392411494816,-0.5144193895334618,0.493314235159225,0
110,0.0043999999999999595,5.001036362253937,-0.501267804946259,0.48021887321068457,0
111,0.0044399999999999995,5.000049991798719,-0.4854859031278065,0.4644931012789317,0
112,0.0044800000000000395,5.000378781950543,-0.4716767387569797,0.4507399738330081,0
113,0.0045200000000000795,5.001036362253937,-0.4585251534002116,0.43764433223044824,0
114,0.0045599999999998975,5.000378781950543,-0.45227815027340634,0.4314531794791948,0
115,0.0045999999999999375,4.99972120164681,-0.44471598852281824,0.4239467745184795,0
116,0.0046399999999999775,5.000378781950543,-0.4348522991667003,0.4141387481604737,0
117,0.0046800000000000175,5.000049991798719,-0.4253173993310475,0.404659417326033,0
118,0.0047200000000000575,5.000049991798719,-0.4184128166150829,0.3978103094101857,0
119,0.0047600000000000975,5.000378781950543,-0.40723396827266556,0.38668684146354154,0
120,0.0047999999999999154,5.000049991798719,-0.39934301640085146,0.3788511753808555,0
121,0.0048399999999999554,5.000049991798719,-0.3901369057787003,0.36970025573983567,0
122,0.0048799999999999955,4.999063621342738,-0.380273215701205,0.3598916616350752,0
123,0.0049200000000000355,5.000049991798719,-0.3769853189799903,0.35665876567875293,0
124,0.0049600000000000755,5.000049991798719,-0.36942315646681895,0.34915150852414123,0
125,0.004999999999999893,5.000049991798719,-0.34870940658726096,0.3284925683992771,0
126,0.005039999999999933,5.000049991798719,-0.34016087472627016,0.31999875049254,0
127,0.005079999999999973,4.99972120164681,-0.3329275015382511,0.31281999526272103,0
128,0.005120000000000013,4.99972120164681,-0.3260229179767166,0.3059699334686822,0
129,0.005160000000000053,4.99972120164681,-0.3210910725374927,0.3010925134125635,0
130,0.0052000000000000934,4.999063621342738,-0.3204334931431985,0.3004892628242644,0
131,0.005239999999999911,4.99972120164681,-0.31418648886930034,0.2942964905874991,0
132,0.005279999999999951,5.001365152405508,-0.3158304373673593,0.2959945741630459,0
133,0.005319999999999991,4.998734831190575,-0.314844068268946,0.295062242992664,0
134,0.005360000000000031,5.000707572102282,-0.32306381071699125,0.3033359260304452,0
135,0.005400000000000071,5.000707572102282,-0.3253653385866545,0.3056912969636849,0
136,0.005440000000000111,4.998734831190575,-0.3408184541035985,0.32119815783115824,0
137,0.005479999999999929,5.002680313010939,-0.34870940658726096,0.3291427577663933,0
138,0.005519999999999969,5.001693942556992,-0.35660035898904563,0.33708725953586427,0
139,0.005560000000000009,5.001036362253937,-0.36745041840745435,0.34799077005412526,0
140,0.005600000000000049,4.999392411494816,-0.37665652930708027,0.3572502336028049,0
141,0.005640000000000089,5.002022732708393,-0.38487627108679634,0.36552322939879633,0
142,0.005679999999999907,5.001365152405508,-0.3963839094274827,0.37708402294198656,0
143,0.005719999999999947,5.000707572102282,-0.4049324406519835,0.38568561037521387,0
144,0.005759999999999987,5.000378781950543,-0.41446734074864966,0.3952734675078121,0
145,0.005800000000000027,5.000049991798719,-0.42235829246062107,0.40321727690489445,0
146,0.005840000000000067,4.999392411494816,-0.4230158717661775,0.4039276143677055,0
147,0.005880000000000107,5.000049991798719,-0.4272901372381229,0.40825453829300723,0
148,0.005919999999999925,5.000049991798719,-0.43189319233425927,0.4129101519635542,0
149,0.005959999999999965,5.000378781950543,-0.4338659302238651,0.4149353483745725,0
150,0.006000000000000005,5.000049991798719,-0.440770512796142,0.42189228924220956,0
151,0.006040000000000045,5.000049991798719,-0.4410993024408353,0.4222733367841557,0
152,0.006080000000000085,5.000049991798719,-0.44833267458710835,0.42955886625852036,0
153,0.006119999999999903,5.000378781950543,-0.45556604666253586,0.43684429492282717,0
154,0.006159999999999943,4.99972120164681,-0.4693752113365407,0.450705415277452,0
155,0.006199999999999983,5.000049991798719,-0.4762797935761899,0.45766185212142035,0
156,0.006240000000000023,5.000049991798719,-0.4923904852154146,0.4738242971216289,0
157,0.006280000000000063,5.000049991798719,-0.5088299661130132,0.4903154299708493,0
158,0.006320000000000103,5.000707572102282,-0.5292149219087158,0.5107519361437939,0
159,0.006359999999999921,5.000049991798719,-0.5519014042944771,0.5334898671684095,0
160,0.006399999999999961,4.99972120164681,-0.5726151484546945,0.554254958066097,0
161,0.006440000000000001,5.000378781950543,-0.5966167877603488,0.5783078420458531,0
162,0.006480000000000041,4.99972120164681,-0.6183168993091663,0.6000590960444339,0
163,0.006520000000000081,5.000378781950543,-0.6410033788493534,0.6227966156500903,0
164,0.006559999999999899,5.000378781950543,-0.6594155935876354,0.641259767910609,0
165,0.006599999999999939,4.99972120164681,-0.6745399124726428,0.6564349216166999,0
166,0.006639999999999979,4.99972120164681,-0.6837460194585385,0.6656917605656238,0
167,0.006680000000000019,4.99972120164681,-0.6853899671217001,0.6673863371778772,0
168,0.006720000000000059,5.000378781950543,-0.6751974915471228,0.6572443873835958,0
169,0.006760000000000099,5.000378781950543,-0.6511958549252326,0.6332931732193678,0
170,0.006799999999999917,5.000378781950543,-0.6225911636264052,0.6047388009027549,0
171,0.006839999999999957,5.000049991798719,-0.580506098452837,0.5627039510841626,0
172,0.006879999999999997,5.001036362253937,-0.526255815457893,0.508503779666191,0
173,0.006920000000000037,5.000378781950543,-0.47299189727970303,0.4552898691372308,0
174,0.006960000000000077,5.000049991798719,-0.38684900910057385,0.3691968845308762,0
175,0.006999999999999895,5.000378781950543,-0.31451527856919353,0.2969129533481308,0
176,0.007039999999999935,5.000049991798719,-0.23231784925298088,0.2147652190097588,0
177,0.007079999999999975,5.000049991798719,-0.14485977504911357,0.127356735267314,0
178,0.007120000000000015,5.000049991798719,-0.06890933451510713,0.05145578053371913,0
179,0.007160000000000055,5.000378781950543,0.005725953648695714,-0.02313012663424363,0
180,0.007200000000000095,5.000049991798719,0.07115513236633955,-0.0885100293031465,0
181,0.007239999999999913,5.000378781950543,0.13033730831487508,-0.14764303429153347,0
182,0.007279999999999953,5.000049991798719,0.17932700139515245,-0.19658366164071228,0
183,0.007319999999999993,4.99972120164681,0.2217408988953935,-0.23894859877832642,0
184,0.007360000000000033,5.000707572102282,0.2519895711816465,-0.2691484162088098,0
185,0.007400000000000073,5.000049991798719,0.27829276527707864,-0.2954028610926773,0
186,0.007440000000000113,4.99972120164681,0.29999290096283887,-0.3170543533473863,0
187,0.007479999999999931,5.000049991798719,0.3177475578045831,-0.33476047267386133,0
188,0.007519999999999971,4.99972120164681,0.32761125619361986,-0.34457573959763865,0
189,0.007560000000000011,5.000049991798719,0.34142043410973355,-0.35833659223168624,0
190,0.007600000000000051,4.99972120164681,0.35621598209791566,-0.37308392125313417,0
191,0.007640000000000091,4.99972120164681,0.38087522924935246,-0.39769505588426335,0
192,0.007679999999999909,5.000049991798719,0.3969859377264751,-0.41375775841755347,0
193,0.007719999999999949,4.99972120164681,0.4249330857131706,-0.4416570071658942,0
194,0.007759999999999989,4.99972120164681,0.4558393444061167,-0.47251547345392,0
195,0.007800000000000029,5.000378781950543,0.48543044404921504,-0.5020588876524441,0
196,0.00784000000000007,5.000378781950543,0.5150215445570808,-0.5316024098019466,0
197,0.00788000000000011,4.99972120164681,0.5465853860405132,-0.563118780138045,0
198,0.007919999999999927,5.000378781950543,0.5738749580973176,-0.590360988382315,0
199,0.007959999999999967,4.99972120164681,0.6083979117149908,-0.6248366856449771,0
200,0.008000000000000007,5.000049991798719,0.6360162754159661,-0.6524079005701384,0
201,0.008040000000000047,5.000378781950543,0.6600179492077702,-0.6763625332859523,0
202,0.008080000000000087,5.000378781950543,0.6820468831540237,-0.6983445339756165,0
203,0.008119999999999905,5.000049991798719,0.7014454969950489,-0.71769632249798,0
204,0.008159999999999945,5.000049991798719,0.7198577409550757,-0.7360618491947496,0
205,0.008199999999999985,4.99972120164681,0.7316941836612886,-0.7478516828095354,0
206,0.008240000000000025,5.000378781950543,0.7432018364120049,-0.759312834756025,0
207,0.008280000000000065,5.000049991798719,0.7491200578724055,-0.7651846638137133,0
208,0.008320000000000105,5.000049991798719,0.7533943289464023,-0.7694126509997694,0
209,0.008359999999999923,4.99972120164681,0.7563534396993844,-0.7723255864917816,0
210,0.008399999999999963,4.999063621342738,0.7527367487801219,-0.7686628290496592,0
211,0.008440000000000003,5.000378781950543,0.7481336876268528,-0.764013810221719,0
212,0.008480000000000043,5.000378781950543,0.7402427256934423,-0.7560769995708452,0
213,0.008520000000000083,5.000378781950543,0.7385987752975985,-0.7543873095227059,0
214,0.008559999999999901,5.000378781950543,0.7251183821423851,-0.7408612858872625,0
215,0.008599999999999941,5.000378781950543,0.7067061380953611,-0.7224035206379109,0
216,0.008639999999999981,5.000049991798719,0.6863211539710237,-0.7019731246939206,0
217,0.008680000000000021,5.000378781950543,0.6616618994869187,-0.6772685678765439,0
218,0.008720000000000061,5.000378781950543,0.6281253142859144,-0.6436867899312898,0
219,0.008760000000000101,5.000049991798719,0.5932735699913566,-0.6087899625830759,0
220,0.008799999999999919,5.000049991798719,0.5607233570170068,-0.5761947763461663,0
221,0.008839999999999959,5.000378781950543,0.5317898352248703,-0.547216391182,0
222,0.008879999999999999,5.000049991798719,0.5021987342314833,-0.5175805368054778,0
223,0.008920000000000039,5.000049991798719,0.475237954074,-0.49057511335104986,0
224,0.008960000000000079,4.99972120164681,0.45189386451958785,-0.46718649068211193,0
225,0.008999999999999897,5.000378781950543,0.433810415239362,-0.44905861856493845,0
226,0.009039999999999937,5.000378781950543,0.4163845462447545,-0.43158843710505157,0
227,0.009079999999999977,5.001036362253937,0.4038905271551365,-0.4190502160148427,0
228,0.009120000000000017,5.000049991798719,0.39205408816440523,-0.40716968558015953,0
229,0.009160000000000057,5.000378781950543,0.38745102859561575,-0.4025226452149362,0
230,0.009200000000000097,5.000049991798719,0.38514949881937116,-0.40017724537958455,0
231,0.009239999999999915,5.000049991798719,0.378244909523295,-0.39322889685046725,0
232,0.009279999999999955,4.999392411494816,0.3772585396278596,-0.39219887863572395,0
233,0.009319999999999995,5.000707572102282,0.37791611955803855,-0.392812921246924,0
234,0.009360000000000035,5.000049991798719,0.38251917908175276,-0.3973725545375116,0
235,0.009400000000000075,5.000378781950543,0.3848207088517801,-0.39963076924471463,0
236,0.009439999999999893,5.000378781950543,0.3841631289169313,-0.39892998550072123,0
237,0.009479999999999933,5.000049991798719,0.38021764931717067,-0.3949414134278002,0
238,0.009519999999999973,5.000378781950543,0.37988885935124656,-0.39456964240593106,0
239,0.009560000000000013,5.000378781950543,0.37528579983999577,-0.3899237133361076,0
240,0.009600000000000053,5.000049991798719,0.37232669016572273,-0.3869218456797163,0
241,0.009640000000000093,5.000049991798719,0.3673948407286867,-0.38194734991502444,0
242,0.009679999999999911,5.000049991798719,0.35884630176409116,-0.3733562763541682,0
243,0.009719999999999951,5.000707572102282,0.3565447720557949,-0.3710123238568633,0
244,0.009759999999999991,5.000378781950543,0.3499689729195523,-0.3643942138136453,0
245,0.009800000000000031,5.000049991798719,0.3460234934594012,-0.3604065354022572,0
246,0.009840000000000071,5.000378781950543,0.34174922406254804,-0.3560901790825344,0
247,0.009880000000000111,5.000049991798719,0.34174922406254804,-0.3560482042595842,0
248,0.009919999999999929,5.000049991798719,0.3374749546847677,-0.3517320722292487,0
249,0.009959999999999969,5.001036362253937,0.34010527429960447,-0.3543206414313236,0
250,0.010000000000000009,5.000707572102282,0.34437954368912554,-0.35855327271619725,0
251,0.010040000000000049,5.000049991798719,0.3470098633229188,-0.36114206662070153,0
252,0.010080000000000089,4.99972120164681,0.3499689729195523,-0.3640597629295711,0
253,0.010119999999999907,4.99972120164681,0.3552296122249514,-0.3692791014538204,0
254,0.010159999999999947,5.000049991798719,0.35818872184687417,-0.3721970228652198,0
255,0.010199999999999987,5.000049991798719,0.35950388168175657,-0.37347110712314,0
256,0.010240000000000027,4.99972120164681,0.36607968088305576,-0.380005943442896,0
257,0.010280000000000067,4.999063621342738,0.3703539503878936,-0.38423936282239024,0
258,0.010320000000000107,5.000378781950543,0.3700251604253127,-0.383869835550368,0
259,0.010359999999999925,4.999392411494816,0.3726554801290847,-0.38645953081922585,0
260,0.010399999999999965,4.999392411494816,0.3733130600561435,-0.3870765992434442,0
261,0.010440000000000005,5.000049991798719,0.3736418500198402,-0.38736499069284325,0
262,0.010480000000000045,5.000378781950543,0.3746282199115991,-0.38831107511423835,0
263,0.010520000000000085,4.99972120164681,0.36805242065217286,-0.3816951034826952,0
264,0.010559999999999903,4.99972120164681,0.36805242065217286,-0.3816550442620602,0
265,0.010599999999999943,5.000707572102282,0.3713403202763059,-0.38490299786919724,0
266,0.010639999999999983,5.000049991798719,0.3700251604253127,-0.38354800525592603,0
267,0.010680000000000023,5.000378781950543,0.36344936119716226,-0.37693248657021744,0
268,0.010720000000000063,5.000049991798719,0.36377815115750733,-0.3772216704266488,0
269,0.010760000000000103,5.000049991798719,0.35950388168175657,-0.37290790824847625,0
270,0.01079999999999992,4.99972120164681,0.35588719214014863,-0.3692518394527084,0
271,0.01083999999999996,5.000049991798719,0.3522705026121238,-0.3655958841644779,0
272,0.01088,5.000378781950543,0.3476674432324937,-0.3609536725632114,0
273,0.01092000000000004,4.99972120164681,0.3479962331874501,-0.3612434238786386,0
274,0.01096000000000008,5.000378781950543,0.34569470350512066,-0.3589029691813481,0
275,0.010999999999999899,5.000378781950543,0.3479962331874501,-0.36116568751466827,0
276,0.011039999999999939,5.000049991798719,0.34668107336830023,-0.359811830052768,0
277,0.011079999999999979,5.000378781950543,0.3453659135509528,-0.3584580863381598,0
278,0.011120000000000019,4.99972120164681,0.34635228341379437,-0.35940598608738494,0
279,0.011160000000000059,4.99972120164681,0.35128413274320414,-0.36429947912390165,0
280,0.011200000000000099,5.000378781950543,0.3516129226993982,-0.3645900266439296,0
281,0.011239999999999917,5.000049991798719,0.35457203231020334,-0.36751100771022427,0
282,0.011279999999999957,4.99972120164681,0.35950388168175657,-0.3724048424627775,0
283,0.011319999999999997,4.99972120164681,0.36509331100000664,-0.3779563711203193,0
284,0.011360000000000037,5.000378781950543,0.3673948407286867,-0.3802201141782918,0
285,0.011400000000000077,5.000049991798719,0.3736418500198402,-0.3864294508193745,0
286,0.011439999999999895,5.000049991798719,0.38219038911505043,-0.3949404313147157,0
287,0.011479999999999935,5.000049991798719,0.3936980380156628,-0.406410635694154,0
288,0.011519999999999975,5.000049991798719,0.40520568705182514,-0.41788095431525923,0
289,0.011560000000000015,5.000707572102282,0.4144118063779491,-0.4270498573587945,0
290,0.011600000000000055,5.000049991798719,0.423289135809651,-0.43589008466565654,0
291,0.011640000000000095,5.000378781950543,0.4354543651603439,-0.44801832607346886,0
292,0.011679999999999913,5.000049991798719,0.44005742495356903,-0.4525845121289137,0
293,0.011719999999999953,5.000378781950543,0.45057870456087235,-0.46306903222560974,0
294,0.011759999999999993,4.999392411494816,0.46044240429339095,-0.47289608669569827,0
295,0.011800000000000033,4.99972120164681,0.46899094414008136,-0.48140809554807235,0
296,0.011840000000000073,4.999392411494816,0.47622432406710596,-0.48860505876776245,0
297,0.011880000000000113,5.001365152405508,0.49101987407920844,-0.5033643063773126,0
298,0.01191999999999993,5.000378781950543,0.49858204416877616,-0.5108902883858422,0
299,0.01195999999999997,5.001036362253937,0.5058154243070226,-0.5180875947802279,0
300,0.01200000000000001,5.000707572102282,0.5215973447863544,-0.5338335558674714,0
301,0.01204000000000005,5.000049991798719,0.5393520056153215,-0.5515523716696488,0
302,0.01208000000000009,5.000378781950543,0.5518460263814189,-0.5640106617867129,0
303,0.012119999999999909,4.99972120164681,0.5712446378680417,-0.5833736570134482,0
304,0.012159999999999949,5.000049991798719,0.5883417194759862,-0.6004352367609718,0
305,0.012199999999999989,5.000049991798719,0.6074115415960156,-0.6194696714292975,0
306,0.012240000000000029,5.000378781950543,0.6251662038770899,-0.6371890606755674,0
307,0.012280000000000069,4.99972120164681,0.6458799769098101,-0.6578676750974948,0
308,0.012320000000000109,5.000049991798719,0.6702104409784629,-0.6821630949854087,0
309,0.012359999999999927,5.000378781950543,0.6942121155229268,-0.7061298397841623,0
310,0.012399999999999967,5.000707572102282,0.7099940387957185,-0.7218769477501796,0
311,0.012440000000000007,5.000049991798719,0.7261047523677602,-0.737952960457224,0
312,0.012480000000000047,5.000378781950543,0.7415578860118445,-0.7533715076798644,0
313,0.012520000000000087,5.000049991798719,0.7478048975451931,-0.7595840472360333,0
314,0.012559999999999905,5.000378781950543,0.7530655388632145,-0.7648103310207867,0
315,0.012599999999999945,4.99972120164681,0.7527367487801219,-0.7644472978469213,0
316,0.012639999999999985,4.99972120164681,0.7524079586971248,-0.7640843791131676,0
317,0.012680000000000025,5.000378781950543,0.7468185273007879,-0.7584609335025481,0
318,0.012720000000000065,5.000378781950543,0.7369548249041552,-0.7485633313235034,0
319,0.012760000000000105,5.000049991798719,0.7205153211021351,-0.7320900421652774,0
320,0.012799999999999923,4.99972120164681,0.7044046076109038,-0.7159456577373207,0
321,0.012839999999999963,5.000378781950543,0.6866499440345579,-0.6981574376359433,0
322,0.012880000000000003,5.000049991798719,0.6702104409784629,-0.6816844924576637,0
323,0.012920000000000043,5.000378781950543,0.6521269879024639,-0.663567711652421,0
324,0.012960000000000083,4.99972120164681,0.644564816705425,-0.6559723271081158,0
325,0.0129999999999999,4.99972120164681,0.6323995848908375,-0.6437739963162202,0
326,0.01303999999999994,5.000049991798719,0.6205631432573784,-0.6319045700623367,0
327,0.01307999999999998,5.000049991798719,0.6110282320367252,-0.6223367885640121,0
328,0.01312000000000002,4.99972120164681,0.6047812212832191,-0.6160570218604015,0
329,0.01316000000000006,5.000049991798719,0.5942599400971913,-0.6055030990355931,0
330,0.0132000000000001,5.000707572102282,0.5853826091778197,-0.5965932407714661,0
331,0.013239999999999919,5.000049991798719,0.5705870578117537,-0.5817652763363155,0
332,0.013279999999999959,5.000049991798719,0.5482293361441843,-0.5593752558559215,0
333,0.013319999999999999,5.000378781950543,0.5229125048372637,-0.5340262399719694,0
334,0.013360000000000039,5.000049991798719,0.492663824093892,-0.5037454888658375,0
335,0.013400000000000079,4.999392411494816,0.45814087434710976,-0.4691905829479919,0
336,0.013439999999999896,4.999063621342738,0.43183767533777917,-0.4428555419356684,0
337,0.013479999999999936,4.99972120164681,0.4012602073670508,-0.41224634610533994,0
338,0.013519999999999976,5.000049991798719,0.3917252981944858,-0.4026798231908381,0
339,0.013560000000000016,4.999392411494816,0.37561458980436124,-0.38653761514965895,0
340,0.013600000000000056,4.999063621342738,0.3601614615998705,-0.3710531013571642,0
341,0.013640000000000096,5.000378781950543,0.3496401829639206,-0.36050055116737867,0
342,0.013679999999999914,5.001365152405508,0.3381325345877989,-0.34896174524165813,0
343,0.013719999999999954,5.000049991798719,0.33648858483106864,-0.34728675190858566,0
344,0.013759999999999994,5.000707572102282,0.32333698687914486,-0.33410422432154896,0
345,0.013800000000000034,5.001365152405508,0.3203778773649874,-0.33111429908043344,0
346,0.013840000000000074,4.997419670581074,0.3239945667724302,-0.33470028663495244,0
347,0.013879999999999892,5.000049991798719,0.3223506170400691,-0.3330257488885353,0
348,0.013919999999999932,5.000049991798719,0.3220218270939379,-0.33266648473100374,0
349,0.013959999999999972,5.000049991798719,0.32596730645501254,-0.33658160364607653,0
350,0.014000000000000012,4.998077250885994,0.3295839958836926,-0.34016804635585246,0
351,0.014040000000000052,4.99972120164681,0.3249809366132103,-0.33553485405422057,0
352,0.014080000000000092,5.001693942556992,0.33418705517639596,-0.34471095323362577,0
353,0.01411999999999991,5.003009103162085,0.34142043410973355,-0.35191442638912523,0
354,0.01415999999999995,4.99972120164681,0.34207801401547533,-0.3525422140805031,0
355,0.01419999999999999,5.000049991798719,0.3437219637818044,-0.3541564851524341,0
356,0.01424000000000003,5.000378781950543,0.34931139300840136,-0.3597163491600509,0
357,0.01428000000000007,5.000049991798719,0.35621598209791566,-0.3665914864604175,0
358,0.01432000000000011,5.000378781950543,0.3542432423529978,-0.3645894083095613,0
359,0.014359999999999928,4.99972120164681,0.3539144523959046,-0.3642313932820795,0
360,0.014399999999999968,4.99972120164681,0.35720235197189,-0.3674901810745305,0
361,0.014440000000000008,5.000049991798719,0.3598326716407575,-0.3700915021969868,0
362,0.014480000000000048,5.000378781950543,0.35687356201378634,-0.3671035072099623,0
363,0.014520000000000088,4.99972120164681,0.35358566243892364,-0.36378683540960544,0
364,0.014559999999999906,4.99972120164681,0.3502977628752965,-0.3604702767022121,0
365,0.014599999999999946,5.000378781950543,0.34207801401547533,-0.35222198172649,0
366,0.014639999999999986,5.000049991798719,0.34010527429960447,-0.35022080886769014,0
367,0.014680000000000026,5.000378781950543,0.33057036573025966,-0.34065758007246616,0
368,0.014720000000000066,5.000049991798719,0.32596730645501254,-0.33602631343143907,0
369,0.014760000000000106,4.99972120164681,0.31939150752898215,-0.32942241994175053,0
370,0.014799999999999924,5.000707572102282,0.31445965836432727,-0.324462588956556,0
371,0.014839999999999964,4.99972120164681,0.3039383802321952,-0.31391344168697505,0
372,0.014880000000000004,5.000049991798719,0.29736258145910344,-0.3073098863984731,0
373,0.014920000000000044,4.99972120164681,0.29341710221727124,-0.3033367632011948,0
374,0.014960000000000084,5.000049991798719,0.28815646325390515,-0.2980485927792503,0
375,0.014999999999999902,5.000049991798719,0.2799367149326714,-0.2898014254321899,0
376,0.015039999999999942,5.000378781950543,0.27368970625679245,-0.2835271100981014,0
377,0.015079999999999982,4.999392411494816,0.2667851177689112,-0.27659532725347546,0
378,0.015120000000000022,5.000049991798719,0.26086689910573707,-0.2706500264678533,0
379,0.015160000000000062,5.000707572102282,0.2552774704028893,-0.26503362780867135,0
380,0.015200000000000102,5.000378781950543,0.2503456215753992,-0.2600749211217654,0
381,0.01523999999999992,5.000378781950543,0.24311224334260462,-0.25281479705626553,0
382,0.01527999999999996,5.000049991798719,0.2388379744134798,-0.24851389424992815,0
383,0.01532,4.999392411494816,0.23916676433040185,-0.24881616217290348,0
384,0.01536000000000004,5.000049991798719,0.23390612567372374,-0.24352911333230975,0
385,0.01540000000000008,4.99972120164681,0.22765911730796928,-0.23725580651842948,0
386,0.015439999999999898,5.000378781950543,0.2204257392533413,-0.2299962416762187,0
387,0.015479999999999938,4.99972120164681,0.2187817897034312,-0.22832621692301822,0
388,0.015519999999999978,5.000049991798719,0.215165100704022,-0.22468356422735825,0
389,0.015560000000000018,4.99972120164681,0.215165100704022,-0.22465771195989356,0
390,0.015600000000000058,5.000049991798719,0.21253478144070864,-0.22200165177864908,0
391,0.0156400000000001,4.99972120164681,0.20431503379170154,-0.2137562744809939,0
392,0.015679999999999916,4.99972120164681,0.20365745398298266,-0.21307317621166325,0
393,0.015719999999999956,5.000378781950543,0.19773923572589475,-0.2071295505997588,0
394,0.015759999999999996,4.99972120164681,0.19478012661180016,-0.2041451451534093,0
395,0.015800000000000036,4.99972120164681,0.18688916902140254,-0.1962290021690935,0
396,0.015840000000000076,5.000049991798719,0.18886190841256045,-0.1981766670194552,0
397,0.015879999999999894,5.000707572102282,0.18393005994272793,-0.19321985477574466,0
398,0.015919999999999934,5.000378781950543,0.18064216097778074,-0.189907102716647,0
399,0.015959999999999974,5.000049991798719,0.18162853066600876,-0.19086872990227616,0
400,0.016000000000000014,5.000049991798719,0.1757103125528065,-0.18492587978886676,0
401,0.016040000000000054,5.000707572102282,0.16814814502025893,-0.17733919066836207,0
402,0.016080000000000094,5.000378781950543,0.16486024611289096,-0.17402688049416465,0
403,0.016119999999999912,5.000049991798719,0.15729807867164466,-0.1664404120151156,0
404,0.016159999999999952,5.000049991798719,0.15433896969026495,-0.1634571121318814,0
405,0.016199999999999992,5.000049991798719,0.15959960788614316,-0.1686936694677989,0
406,0.016240000000000032,5.000049991798719,0.1553253393496381,-0.16439543001819767,0
407,0.016280000000000072,5.000378781950543,0.15236623037478086,-0.16141245998110698,0
408,0.016320000000000112,5.000049991798719,0.14776317198891464,-0.1567856502868969,0
409,0.01635999999999993,4.99972120164681,0.14348890350900304,-0.15248774015458816,0
410,0.01639999999999997,5.000378781950543,0.13855705528841938,-0.1475323598386426,0
411,0.01644000000000001,4.99972120164681,0.13592673624861432,-0.1448786181606322,0
412,0.01648000000000005,5.000049991798719,0.13395399697386687,-0.14288256560399132,0
413,0.01652000000000009,4.99972120164681,0.13033730831487508,-0.13924267291760928,0
414,0.016559999999999908,5.000378781950543,0.12474788041634353,-0.13363015014341945,0
415,0.016599999999999948,5.000049991798719,0.12211756141747197,-0.13097684531688963,0
416,0.016639999999999988,5.000707572102282,0.11981603229987327,-0.1286524393149412,0
417,0.016680000000000028,5.000049991798719,0.11356902472517753,-0.12238266369355599,0
418,0.016720000000000068,5.000378781950543,0.10797959693268015,-0.11677057658542589,0
419,0.016760000000000108,4.99972120164681,0.11258265511216159,-0.12135108407277534,0
420,0.016799999999999926,5.000378781950543,0.10863717667113368,-0.11738316345460958,0
421,0.016839999999999966,4.99972120164681,0.10830838680184553,-0.11703203981372212,0
422,0.016880000000000006,5.000378781950543,0.10962354627973452,-0.11832497381514773,0
423,0.016920000000000046,5.000378781950543,0.1033765387772625,-0.11205584902000026,0
424,0.016960000000000086,5.000707572102282,0.09975985024348359,-0.10841715126504231,0
425,0.016999999999999904,5.000049991798719,0.095485581995499,-0.10412098175414186,0
426,0.017039999999999944,5.000049991798719,0.09285526308401794,-0.1014688694238356,0
427,0.017079999999999984,5.000049991798719,0.09285526308401794,-0.10144718373399103,0
428,0.017120000000000024,4.99972120164681,0.08989615431804343,-0.0984664968911072,0
429,0.017160000000000064,5.000378781950543,0.08693704556207577,-0.09548591755418673,0
430,0.017200000000000104,4.99972120164681,0.08364914695608275,-0.09217665574528705,0
431,0.017239999999999922,4.99972120164681,0.08101882808020172,-0.08952508092570582,0
432,0.017279999999999962,5.000378781950543,0.0757581903522391,-0.08424329439348244,0
433,0.017320000000000002,4.99972120164681,0.07674455992381307,-0.0852086221795425,0
434,0.017360000000000042,5.000049991798719,0.07247029178839723,-0.08091341915574368,0
435,0.017400000000000082,5.000049991798719,0.06918239323698341,-0.0776046924905412,0
436,0.0174399999999999,5.000378781950543,0.06951118309156513,-0.07791276088247301,0
437,0.01747999999999994,5.000049991798719,0.06753844396594139,-0.07591940682096554,0
438,0.01751999999999998,5.000049991798719,0.0626065961714958,-0.07096705049211527,0
439,0.01756000000000002,4.999392411494816,0.056688378855200935,-0.06502843091669491,0
440,0.01760000000000006,5.000049991798719,0.060962646912913254,-0.06928240286345044,0
441,0.0176400000000001,4.99972120164681,0.05570200930641887,-0.06400157516614846,0
442,0.017679999999999918,5.000049991798719,0.054058060060948765,-0.062337541721093626,0
443,0.017719999999999958,4.99972120164681,0.04945500219027131,-0.05771450541222306,0
444,0.017759999999999998,5.000049991798719,0.04879742249646346,-0.057037052910880126,0
445,0.017800000000000038,5.000378781950543,0.04682468341804723,-0.055044546523952353,0
446,0.017840000000000078,4.99972120164681,0.04287920527475757,-0.05107940643864117,0
447,0.017879999999999896,5.000378781950543,0.03696098809372539,-0.04514163254864734,0
448,0.017919999999999936,5.000049991798719,0.03433066935967702,-0.04249186220437229,0
449,0.017959999999999976,4.99972120164681,0.037289777936047624,-0.0454316241340344,0
450,0.018000000000000016,5.000049991798719,0.03268672015498804,-0.040809324533677194,0
451,0.018040000000000056,5.000378781950543,0.03268672015498804,-0.0407901874047944,0
452,0.018080000000000096,5.000049991798719,0.029727611594485073,-0.03781204626794038,0
453,0.018119999999999914,5.000707572102282,0.025124553854007567,-0.033190060364875595,0
454,0.018159999999999954,5.000049991798719,0.021836655483104705,-0.02988333810549898,0
455,0.018199999999999994,5.000049991798719,0.019863916466630674,-0.02789187933413456,0
456,0.018240000000000034,4.99972120164681,0.01953512663099438,-0.027544473735782893,0
457,0.018280000000000074,5.000378781950543,0.015589648613231935,-0.023580483805195895,0
458,0.018320000000000114,5.000049991798719,0.017233597785083862,-0.025206024770956015,0
459,0.018359999999999932,5.000049991798719,0.015589648613231935,-0.023543770955716248,0
460,0.018399999999999972,5.000049991798719,0.014274489278030808,-0.02221041039493349,0
461,0.018440000000000012,5.000378781950543,0.009342641789095676,-0.017260464952458587,0
462,0.018480000000000052,5.000378781950543,0.009342641789095676,-0.017242470124332443,0
463,0.018520000000000092,5.000049991798719,0.008027482463535476,-0.015909418948569898,0
464,0.01855999999999991,5.000378781950543,0.0076986926324629085,-0.015562840096869701,0
465,0.01859999999999995,5.000378781950543,0.0027668451816259126,-0.010613306305774006,0
466,0.01863999999999999,4.99972120164681,0.003424424840084442,-0.011253302154281941,0
467,0.01868000000000003,4.99972120164681,0.0021092655236763236,-0.009920661407318287,0
468,0.01872000000000007,5.000049991798719,-0.00348016154833046,-0.004313855132387745,0
469,0.01876000000000011,5.000378781950543,-0.006110480157705198,-0.001666259395109726,0
470,0.018799999999999928,5.000049991798719,-0.00874079875891258,0.0009812344124369154,0
471,0.018839999999999968,5.000378781950543,-0.00348016154833046,-0.004262329359070727,0
472,0.018880000000000008,4.99972120164681,-0.007425639459330238,-0.0002998796211220456,0
473,0.018920000000000048,5.000049991798719,-0.010055958056451306,0.002347309346799775,0
474,0.018960000000000088,5.000049991798719,-0.0090695885834889,0.001377708945302869,0
475,0.018999999999999906,5.000049991798719,-0.00939837840793746,0.0017231666995281558,0
476,0.019039999999999946,5.001036362253937,-0.013343856291351444,0.005685211529507184,0
477,0.019079999999999986,5.000049991798719,-0.013343856291351444,0.005701677652165726,0
478,0.019120000000000026,5.000049991798719,-0.012028696998925656,0.004402883818622305,0
479,0.019160000000000066,4.99972120164681,-0.01564538504817102,0.008035836823927056,0
480,0.019200000000000106,5.000049991798719,-0.019590862902407788,0.011997479293173685,0
481,0.019239999999999924,5.000378781950543,-0.023536340738185738,0.015959021565502995,0
482,0.019279999999999964,5.000049991798719,-0.025180289830972882,0.017618935079788622,0
483,0.019320000000000004,4.99972120164681,-0.029454557457189598,0.021909067276668637,0
484,0.019360000000000044,5.000049991798719,-0.03438640469119987,0.02685667939553399,0
485,0.019400000000000084,5.000378781950543,-0.03340003524671499,0.0258859753159304,0
486,0.019439999999999902,5.000049991798719,-0.03372882506167206,0.02623033114243406,0
487,0.019479999999999942,4.99972120164681,-0.03372882506167206,0.02624579796808746,0
488,0.019519999999999982,5.000049991798719,-0.0383318824575425,0.03086422317195936,0
489,0.019560000000000022,5.000378781950543,-0.0389894620834612,0.031537071757265556,0
490,0.019600000000000062,5.000378781950543,-0.04096220095812057,0.033524980912530256,0
491,0.019640000000000102,5.000378781950543,-0.04852436660123595,0.041102218328091744,0
492,0.01967999999999992,5.000378781950543,-0.04852436660123595,0.04111719176378992,0
493,0.01971999999999996,5.000378781950543,-0.04589404812443025,0.0385017485581311,0
494,0.01976,5.000049991798719,-0.046551627744407784,0.03917410545768346,0
495,0.01980000000000004,5.000378781950543,-0.042277360205311795,0.03491451738034951,0
496,0.01984000000000008,4.999392411494816,-0.045565258314247556,0.03821699730777156,0
497,0.019879999999999898,5.000378781950543,-0.04852436660123595,0.041190589945281686,0
498,0.019919999999999938,5.000707572102282,-0.046551627744407784,0.039232238147093756,0
499,0.019959999999999978,5.000049991798719,-0.04852436660123595,0.04121926694753292,0
500,0.020000000000000018,5.000378781950543,-0.04392130926139491,0.036630402613892055,0
501,0.020040000000000058,5.000049991798719,-0.046551627744407784,0.03927481734407562,0
502,0.020080000000000098,4.99972120164681,-0.04622283793448369,0.03896002720143499,0
503,0.020119999999999916,4.99972120164681,-0.04425009907222392,0.03700119160647136,0
504,0.020159999999999956,5.000378781950543,-0.04523646850393555,0.038001368086146736,0
505,0.020199999999999996,5.000049991798719,-0.05378500352999273,0.04656361412224247,0
506,0.020240000000000036,5.000378781950543,-0.05115468506975916,0.04394691081627905,0
507,0.020280000000000076,5.000378781950543,-0.04392130926139491,0.0367270544893199,0
508,0.020319999999999894,4.99972120164681,-0.047537997173404054,0.04035716639351611,0
509,0.020359999999999934,5.000378781950543,-0.0491819462191435,0.04201444412661204,0
510,0.020399999999999974,5.000707572102282,-0.050168315645034,0.043014047120153776,0
511,0.020440000000000014,5.000049991798719,-0.05049710545340523,0.04335597556233112,0
512,0.020480000000000054,5.000049991798719,-0.05378500352999273,0.0466569175254718,0
513,0.020520000000000094,4.999392411494816,-0.05805927101017365,0.05094413433227424,0
514,0.02055999999999991,4.99972120164681,-0.05575774236972354,0.04865546064656073,0
515,0.02059999999999995,4.99972120164681,-0.05608653217589139,0.04899701122434985,0
516,0.02063999999999999,5.000378781950543,-0.054771372950441696,0.04769451877689562,0
517,0.02068000000000003,5.000049991798719,-0.056415321981929514,0.049351040782959654,0
518,0.02072000000000007,5.000049991798719,-0.05575774236972354,0.04870594053283067,0
519,0.02076000000000011,5.000378781950543,-0.058716850620562686,0.051677434724878624,0
520,0.02079999999999993,5.000049991798719,-0.05707290159361651,0.05004577841061164,0
521,0.02083999999999997,5.000049991798719,-0.06003200983978245,0.053017086333970176,0
522,0.02088000000000001,5.000707572102282,-0.06397748748496758,0.05697467081460589,0
523,0.02092000000000005,4.99972120164681,-0.06036079964426265,0.05336999716205171,0
524,0.02096000000000009,5.000049991798719,-0.06364869768191721,0.05666981693569417,0
525,0.020999999999999908,5.000378781950543,-0.06562143649826817,0.05865438523169886,0
526,0.021039999999999948,5.000378781950543,-0.07318360191751903,0.06622828807078668,0
527,0.021079999999999988,5.000049991798719,-0.07285481211811588,0.06591114382860641,0
528,0.021120000000000028,5.000049991798719,-0.07482755091257769,0.06789543651556229,0
529,0.021160000000000068,5.000049991798719,-0.07384118151593398,0.06692052954524841,0
530,0.021200000000000108,4.99972120164681,-0.07614271010627514,0.06923342929499637,0
531,0.021239999999999926,5.000049991798719,-0.08337608563423975,0.07647808491535885,0
532,0.021279999999999966,5.000049991798719,-0.08469124481434036,0.07780443332143294,0
533,0.021320000000000006,5.000378781950543,-0.08469124481434036,0.07781553188223356,0
534,0.021360000000000046,4.99972120164681,-0.08666398358056253,0.07979927874599918,0
535,0.021400000000000086,5.000049991798719,-0.09093825089119083,0.08408446389349034,0
536,0.021439999999999904,5.000049991798719,-0.08699277337447438,0.08014981415619105,0
537,0.021479999999999944,4.999392411494816,-0.0843624550195116,0.07753023372708956,0
538,0.021519999999999984,4.99972120164681,-0.08732156316825516,0.08049999015267928,0
539,0.021560000000000024,4.99972120164681,-0.0863351937865197,0.07952417960396402,0
540,0.021600000000000064,5.000049991798719,-0.08502003460903816,0.07821949002151074,0
541,0.021640000000000104,5.000378781950543,-0.08797914275542355,0.08118897873140801,0
542,0.02167999999999992,4.99972120164681,-0.08896551213519292,0.08218563985028632,0
543,0.02171999999999996,5.000378781950543,-0.09028067130638286,0.08351100214393037,0
544,0.02176,4.999392411494816,-0.09521251817964406,0.08845296373137124,0
545,0.02180000000000004,5.000049991798719,-0.09291098964246501,0.0861614617091066,0
546,0.02184000000000008,5.000707572102282,-0.09455493859824966,0.08781534919017508,0
547,0.0218799999999999,5.000378781950543,-0.08929430192818714,0.08256456326602224,0
548,0.02191999999999994,4.99972120164681,-0.09258219985091413,0.08586222436615937,0
549,0.02195999999999998,5.000707572102282,-0.09356856922517286,0.08685826956081771,0
550,0.02200000000000002,5.001365152405508,-0.09225341005923197,0.08555269907036567,0
551,0.02204000000000006,5.001365152405508,-0.09323977943388458,0.0865485701883037,0
552,0.0220800000000001,5.000049991798719,-0.09060946109885244,0.08392766687766506,0
553,0.022119999999999918,5.001693942556992,-0.09389735901632983,0.08722489331455735,0
554,0.022159999999999958,4.998077250885994,-0.09784283649996468,0.09117961302714,0
555,0.022199999999999998,5.002351522859708,-0.0971852569206733,0.09053118960143536,0
556,0.022240000000000038,4.99972120164681,-0.09882920586791545,0.0921842088426002,0
557,0.022280000000000078,5.000378781950543,-0.10474742205074437,0.09811140967597182,0
558,0.022319999999999895,5.002351522859708,-0.10474742205074437,0.09812030890000234,0
559,0.022359999999999935,5.000707572102282,-0.10770653012615032,0.10108823099037473,0
560,0.022399999999999975,5.000049991798719,-0.0998155752346823,0.0932060051228345,0
561,0.022440000000000015,5.000049991798719,-0.09948678544589158,0.09288585958553286,0
562,0.022480000000000055,4.99972120164681,-0.0971852569206733,0.09059289075853627,0
563,0.022520000000000095,5.000378781950543,-0.10113073438852911,0.09454684359108562,0
564,0.022559999999999913,5.000049991798719,-0.1027746833278755,0.09619918378190095,0
565,0.022599999999999953,4.99972120164681,-0.10310347311534969,0.09653628092848354,0
566,0.022639999999999993,5.000378781950543,-0.10606258119668784,0.09950361269799074,0
567,0.022680000000000033,5.000049991798719,-0.10113073438852911,0.09457990612903608,0
568,0.022720000000000073,5.000049991798719,-0.09751404671038476,0.09097127546365488,0
569,0.022760000000000113,4.999392411494816,-0.10474742205074437,0.09821262481340692,0
570,0.02279999999999993,4.99972120164681,-0.10113073438852911,0.09460382838082637,0
571,0.02283999999999997,5.000378781950543,-0.09915799565696932,0.09263889832329592,0
572,0.02288000000000001,5.000049991798719,-0.10145952417666172,0.09494815318610006,0
573,0.02292000000000005,4.99972120164681,-0.10639137098284411,0.09988764422969673,0
574,0.02296000000000009,5.000049991798719,-0.10047315481186896,0.0939769904161864,0
575,0.02299999999999991,4.99972120164681,-0.1027746833278755,0.09628599963598122,0
576,0.02303999999999995,4.99972120164681,-0.10606258119668784,0.09958129678169939,0
577,0.02307999999999999,5.000049991798719,-0.10408984247698179,0.09761587613932823,0
578,0.02312000000000003,4.999392411494816,-0.10507621183742798,0.09860948260536354,0
579,0.02316000000000007,5.000707572102282,-0.1100080586218566,0.10354848575197051,0
580,0.02320000000000011,5.000049991798719,-0.11493990537658023,0.1084874083543032,0
581,0.023239999999999927,5.000049991798719,-0.10935047905231472,0.10290497759242204,0
582,0.023279999999999967,5.000049991798719,-0.10343226290269213,0.09699367694980365,0
583,0.023320000000000007,5.000049991798719,-0.10408984247698179,0.09765809220605809,0
584,0.023360000000000047,4.99972120164681,-0.10310347311534969,0.09667847893218501,0
585,0.023400000000000087,5.000378781950543,-0.10540500162397977,0.09898668416569142,0
586,0.023439999999999905,5.000049991798719,-0.10737774034052165,0.10096602047603592,0
587,0.023479999999999945,5.000049991798719,-0.10606258119668784,0.09965738002722213,0
588,0.023519999999999985,5.000049991798719,-0.10376105268990284,0.09736229154944398,0
589,0.023560000000000025,5.000049991798719,-0.10540500162397977,0.09901260207975882,0
590,0.023600000000000065,5.000049991798719,-0.10573379141039972,0.09934767526336297,0
591,0.023640000000000105,5.000378781950543,-0.10474742205074437,0.09836751133602073,0
592,0.023679999999999923,5.000049991798719,-0.10573379141039972,0.09936000839776404,0
593,0.023719999999999963,5.000049991798719,-0.10573379141039972,0.09936605860473283,0
594,0.023760000000000003,4.999392411494816,-0.10737774034052165,0.1010159804822667,0
595,0.023800000000000043,5.000378781950543,-0.10113073438852911,0.09477487045414407,0
596,0.023840000000000083,5.000049991798719,-0.10474742205074437,0.09839737725315098,0
597,0.0238799999999999,5.000378781950543,-0.10474742205074437,0.09840311983977332,0
598,0.02391999999999994,5.000378781950543,-0.10507621183742798,0.0987375759002605,0
599,0.02395999999999998,5.000707572102282,-0.10145952417666172,0.09512647843826741,0
600,0.02400000000000002,4.99972120164681,-0.10047315481186896,0.09414562343543997,0
601,0.02404000000000006,5.000049991798719,-0.10441863226392899,0.09809653965131035,0
602,0.0240800000000001,4.99972120164681,-0.10639137098284411,0.10007464177496025,0
603,0.02411999999999992,5.000378781950543,-0.10343226290269213,0.09712082197996985,0
604,0.02415999999999996,5.000049991798719,-0.09948678544589158,0.0931805579286796,0
605,0.0242,5.000049991798719,-0.09389735901632983,0.08759627026531483,0
606,0.02424000000000004,4.99972120164681,-0.09258219985091413,0.08628617546753295,0
607,0.02428000000000008,5.000049991798719,-0.08929430192818714,0.0830032677550353,0
608,0.024319999999999897,5.000049991798719,-0.08567761419804089,0.0793914963192775,0
609,0.024359999999999937,5.000049991798719,-0.08107455706402487,0.07479328180577396,0
610,0.024399999999999977,5.000049991798719,-0.08337608563423975,0.07709957956498803,0
611,0.024440000000000017,5.000378781950543,-0.07844423869021762,0.07217242862120818,0
612,0.024480000000000057,4.99972120164681,-0.07515634071119788,0.06888915369682025,0
613,0.024520000000000097,4.999392411494816,-0.06989570391761903,0.06363306725579576,0
614,0.024559999999999915,4.99972120164681,-0.06562143649826817,0.05936327773083809,0
615,0.024599999999999955,5.000049991798719,-0.06463506709067811,0.05838131400377555,0
616,0.024639999999999995,4.99972120164681,-0.06101837925283336,0.05476895987726377,0
617,0.024680000000000035,5.000378781950543,-0.059374430230432304,0.05312927284204423,0
618,0.024720000000000075,5.000378781950543,-0.05805927101017365,0.05181830413022692,0
619,0.024759999999999893,5.000049991798719,-0.058716850620562686,0.05248000301609283,0
620,0.024799999999999933,5.000378781950543,-0.06397748748496758,0.05774468816914678,0
621,0.024839999999999973,4.99972120164681,-0.06792296511142272,0.061694143343916846,0
622,0.024880000000000013,5.000378781950543,-0.07285481211811588,0.06662989740543784,0
623,0.024920000000000053,5.000707572102282,-0.08370487542946127,0.07748379752532081,0
624,0.024960000000000093,5.000378781950543,-0.08797914275542355,0.08176183166107348,0
625,0.02499999999999991,5.000378781950543,-0.08863672234206758,0.08242310830664612,0
626,0.02503999999999995,5.000378781950543,-0.09225341005923197,0.0860434235801015,0
627,0.02507999999999999,5.000049991798719,-0.09554130797014417,0.08933487979322607,0
628,0.02512000000000003,5.000049991798719,-0.0998155752346823,0.09361263635478817,0
629,0.02516000000000007,4.99972120164681,-0.10113073438852911,0.09493121604968796,0
630,0.02520000000000011,5.000707572102282,-0.10869289948224485,0.10249673317802674,0
631,0.02523999999999993,5.000049991798719,-0.1116520075434007,0.1054591250172365,0
632,0.02527999999999997,4.999392411494816,-0.11855659297780442,0.11236692622330188,0
633,0.02532000000000001,4.99972120164681,-0.12348843968092783,0.11730192094218381,0
634,0.02536000000000005,4.99972120164681,-0.12578996813217858,0.1196065299040879,0
635,0.02540000000000009,5.000378781950543,-0.13466729209748313,0.12848686712604349,0
636,0.025439999999999907,5.000707572102282,-0.14913404205518838,0.1429565633378012,0
637,0.025479999999999947,4.99972120164681,-0.16228563270127483,0.15611103348704256,0
638,0.025519999999999987,5.000378781950543,-0.18267059777791833,0.17649881156793762,0
639,0.025560000000000027,5.000049991798719,-0.20371314182838302,0.19754410237603404,0
640,0.025600000000000067,4.99972120164681,-0.22837237242836733,0.22220601373959928,0
641,0.025640000000000107,5.000049991798719,-0.2454694385255246,0.23930569485913772,0
642,0.025679999999999925,4.99972120164681,-0.2674983500627522,0.2613371559306762,0
643,0.025719999999999965,5.000049991798719,-0.27900599017070005,0.27284728033826894,0
644,0.025760000000000005,5.000049991798719,-0.29248636836596326,0.28633007785218634,0
645,0.025800000000000045,4.99972120164681,-0.3023500595795572,0.2961961236573864,0
646,0.025840000000000085,5.000049991798719,-0.3039940081029004,0.29784236229949335,0
647,0.025879999999999903,5.000049991798719,-0.30037732134691947,0.29422790144389865,0
648,0.025919999999999943,5.000378781950543,-0.29182878894724706,0.2856815309809544,0
649,0.025959999999999983,4.99972120164681,-0.2836090461661699,0.2774638864279177,0
650,0.026000000000000023,5.000049991798719,-0.2763756724467517,0.2702325474830691,0
651,0.026040000000000063,4.999392411494816,-0.2612513453615303,0.2551101919744051,0
652,0.026080000000000103,4.999392411494816,-0.2523740228054256,0.24623477805254254,0
653,0.02611999999999992,5.000049991798719,-0.24251033095838925,0.2363729321533638,0
654,0.02615999999999996,5.000378781950543,-0.2316602697835834,0.22552465449619155,0
655,0.0262,5.000049991798719,-0.21949504950086995,0.2133611555572752,0
656,0.02624000000000004,5.000049991798719,-0.20765861877594044,0.20152638425891586,0
657,0.02628000000000008,5.000378781950543,-0.19812371611915885,0.19199307936830587,0
658,0.0263199999999999,4.99972120164681,-0.19417823912431548,0.188049138736279,0
659,0.02635999999999994,5.000049991798719,-0.18858881334820277,0.1824611881768824,0
660,0.02639999999999998,5.000049991798719,-0.18365696704267448,0.17753075619943193,0
661,0.02644000000000002,4.999392411494816,-0.17740996167869222,0.17128510453255472,0
662,0.02648000000000006,5.000378781950543,-0.17050537674606547,0.16438181292392579,0
663,0.0265200000000001,5.000707572102282,-0.16886142794382974,0.16273909733064265,0
664,0.026559999999999917,5.000049991798719,-0.16360079175408504,0.15747963449305988,0
665,0.026599999999999957,4.99972120164681,-0.16590232009133205,0.15978227658412145,0
666,0.026639999999999997,5.000378781950543,-0.16655989961505047,0.16044091052193535,0
667,0.026680000000000037,5.000049991798719,-0.16360079175408504,0.1574827979941557,0
668,0.026720000000000077,5.000378781950543,-0.16228563270127483,0.15616857545260865,0
669,0.026759999999999895,4.99972120164681,-0.15801136576481256,0.15189518646464778,0
670,0.026799999999999935,4.99972120164681,-0.1543946783393399,0.1482793186842454,0
671,0.026839999999999975,4.999392411494816,-0.15044920112943688,0.14433460307547774,0
672,0.026880000000000015,5.000707572102282,-0.148805252286292,0.14269135804919114,0
673,0.026920000000000055,5.000378781950543,-0.14420219550771413,0.13808894756301027,0
674,0.026960000000000095,5.000378781950543,-0.14485977504911357,0.13874711613231516,0
675,0.026999999999999913,5.000378781950543,-0.1333521329976266,0.12724000610436226,0
676,0.027039999999999953,5.000049991798719,-0.13828397961110772,0.13217232799727216,0
677,0.027079999999999993,5.000378781950543,-0.13269455344690018,0.1265833206287967,0
678,0.027120000000000033,4.99972120164681,-0.13039302501516953,0.12428215476964871,0
679,0.027160000000000073,5.000049991798719,-0.12809149657692737,0.12198093294152187,0
680,0.027200000000000113,5.000049991798719,-0.12743391702194856,0.12132360429500413,0
681,0.02723999999999993,5.000049991798719,-0.12546117835382642,0.11935106109462895,0
682,0.02727999999999997,5.000378781950543,-0.12151570100325589,0.11540572403215466,0
683,0.02732000000000001,5.000049991798719,-0.12480359879672413,0.11869370719525166,0
684,0.02736000000000005,4.99972120164681,-0.11855659297780442,0.11244673208879222,0
685,0.02740000000000009,5.000049991798719,-0.11395353602801415,0.1078436514557049,0
686,0.02743999999999991,4.99972120164681,-0.1136247462448944,0.10751478385505038,0
687,0.02747999999999995,5.000049991798719,-0.1100080586218566,0.10389796454186438,0
688,0.02751999999999999,5.000049991798719,-0.10310347311534969,0.096993193734321,0
689,0.02756000000000003,5.000049991798719,-0.09948678544589158,0.09337626741476021,0
690,0.02760000000000007,5.000378781950543,-0.09587009776051285,0.08975928799212791,0
691,0.02764000000000011,5.000049991798719,-0.08600640399234578,0.07989524966156114,0
692,0.027679999999999927,4.99972120164681,-0.07449876111382696,0.06838720965758698,0
693,0.027719999999999967,5.000049991798719,-0.05279863410837703,0.046686633225798496,0
694,0.027760000000000007,5.000378781950543,-0.06463506709067811,0.058522564743128495,0
695,0.027800000000000047,4.99972120164681,-0.054113793336938706,0.04800073774811076,0
696,0.027840000000000087,4.99972120164681,-0.04523646850393555,0.03912280815991794,0
697,0.027879999999999905,4.999392411494816,-0.03964704170886384,0.03353272535820795,0
698,0.027919999999999945,5.000049991798719,-0.03866067227056637,0.0325456489243494,0
699,0.027959999999999985,4.99972120164681,-0.03668793339048888,0.030572152322373217,0
700,0.028000000000000025,4.99972120164681,-0.03372882506167206,0.027612235807960864,0
701,0.028040000000000065,5.000049991798719,-0.03372882506167206,0.02761137742136119,0
702,0.028080000000000105,5.000049991798719,-0.033071245431629134,0.02695288946645527,0
703,0.028119999999999923,5.000049991798719,-0.03668793339048888,0.030568619424973936,0
704,0.028159999999999963,5.000049991798719,-0.04720920736386795,0.0410888859853598,0
705,0.028200000000000003,5.000378781950543,-0.045565258314247556,0.039443880372956874,0
706,0.028240000000000043,5.000378781950543,-0.04852436660123595,0.04240188321026925,0
707,0.028280000000000083,5.000049991798719,-0.05575774236972354,0.04963410490511245,0
708,0.0283199999999999,5.000049991798719,-0.06331990787873677,0.05719506797946363,0
709,0.02835999999999994,5.000378781950543,-0.0626623282719858,0.056536237840005533,0
710,0.02839999999999998,5.000378781950543,-0.06759417530993413,0.061466786510192335,0
711,0.02844000000000002,5.000378781950543,-0.07877302848740105,0.07264429374784845,0
712,0.02848000000000006,4.999392411494816,-0.08304729583888733,0.07691716785049044,0
713,0.0285200000000001,5.000049991798719,-0.07877302848740105,0.07264146020414919,0
714,0.02855999999999992,5.000049991798719,-0.08173213665616903,0.07559908129507797,0
715,0.02859999999999996,4.99972120164681,-0.08699277337447438,0.0808581844155862,0
716,0.02864,5.000378781950543,-0.09258219985091413,0.08644603103729356,0
717,0.02868000000000004,5.000378781950543,-0.09389735901632983,0.08775956435405667,0
718,0.02872000000000008,4.99972120164681,-0.09323977943388458,0.08710031319204255,0
719,0.028759999999999897,5.000049991798719,-0.10047315481186896,0.09433197152253081,0
720,0.028799999999999937,4.99972120164681,-0.10474742205074437,0.09860447650895342,0
721,0.028839999999999977,4.99972120164681,-0.10507621183742798,0.09893145910117572,0
722,0.028880000000000017,4.999392411494816,-0.10080194460026483,0.09465533999046506,0
723,0.028920000000000057,5.000049991798719,-0.10836410969701198,0.10221560879747126,0
724,0.028960000000000097,5.000378781950543,-0.11263837689474214,0.10648793555212675,0
725,0.028999999999999915,5.000378781950543,-0.11329595646164246,0.10714353078544166,0
726,0.029039999999999955,5.000049991798719,-0.11329595646164246,0.10714150282412814,0
727,0.029079999999999995,5.000049991798719,-0.11724143385193893,0.11108490888812139,0
728,0.029120000000000035,4.99972120164681,-0.12283086012223408,0.11667222072981424,0
729,0.029160000000000075,4.99972120164681,-0.12184449078319924,0.1156836941225172,0
730,0.029200000000000115,5.000049991798719,-0.12644754768848476,0.12028455118246452,0
731,0.029239999999999933,5.000049991798719,-0.12842028635421754,0.12225504768830782,0
732,0.029279999999999973,5.000049991798719,-0.12842028635421754,0.12225276347632873,0
733,0.029320000000000013,5.001036362253937,-0.13039302501516953,0.12422317613560688,0
734,0.029360000000000053,5.000049991798719,-0.12710512724426004,0.12093291083565338,0
735,0.029400000000000093,5.000707572102282,-0.12809149657692737,0.12191687137415713,0
736,0.02943999999999991,4.99972120164681,-0.12480359879672413,0.11862652379684396,0
737,0.02947999999999995,5.000049991798719,-0.12414601923909123,0.11796645370124693,0
738,0.02951999999999999,4.99972120164681,-0.12710512724426004,0.12092303068960503,0
739,0.02956000000000003,4.99972120164681,-0.12743391702194856,0.12124924923355557,0
740,0.02960000000000007,5.000378781950543,-0.12315964990164728,0.11697237092441704,0
741,0.02964000000000011,5.000378781950543,-0.12874907613137498,0.12255914627194119,0
742,0.02967999999999993,5.000049991798719,-0.13039302501516953,0.12420040484180042,0
743,0.02971999999999997,5.000378781950543,-0.1251323885753416,0.11893703891783784,0
744,0.02976000000000001,5.000378781950543,-0.12118691122318002,0.11498879317276918,0
745,0.02980000000000005,5.000378781950543,-0.11757022363360382,0.11136929854283134,0
746,0.02984000000000009,5.000049991798719,-0.11691264407014172,0.11070887355275844,0
747,0.029879999999999907,4.99972120164681,-0.11559748494162976,0.1093908308724757,0
748,0.029919999999999947,5.000049991798719,-0.11296716667825839,0.10675759119314307,0
749,0.029959999999999987,5.000707572102282,-0.10836410969701198,0.10215157519259113,0
750,0.030000000000000027,4.99972120164681,-0.10540500162397977,0.09918947075762863,0
751,0.030040000000000067,5.000378781950543,-0.09455493859824966,0.0883363742879327,0
752,0.030080000000000107,5.000378781950543,-0.09093825089119083,0.08471661631532817,0
753,0.030119999999999925,5.000049991798719,-0.08238971624778989,0.07616497484512036,0
754,0.030159999999999965,5.001036362253937,-0.07778665909545869,0.07155877456489944,0
755,0.030200000000000005,4.99972120164681,-0.07384118151593398,0.067610117816437,0
756,0.030240000000000045,4.99972120164681,-0.07088207331895803,0.06464779466936318,0
757,0.030280000000000085,5.000378781950543,-0.057730481204784426,0.05149295208366915,0
758,0.030319999999999903,5.002022732708393,-0.054113793336938706,0.04787297848246419,0
759,0.030359999999999943,5.000707572102282,-0.04096220095812057,0.03471806536787447,0
760,0.030399999999999983,5.000378781950543,-0.03866067227056637,0.03241318120140223,0
761,0.030440000000000023,5.000378781950543,-0.03340003524671499,0.027149154214588175,0
762,0.030480000000000063,4.998406041038327,-0.037016723204157484,0.030762417983957832,0
763,0.030520000000000103,5.002022732708393,-0.0389894620834612,0.03273169870884242,0
764,0.03055999999999992,5.000707572102282,-0.05214105449331856,0.045879799256523926,0
765,0.03059999999999996,5.001036362253937,-0.06036079964426265,0.05409601909594733,0
766,0.03064,5.002022732708393,-0.05805927101017365,0.05179093195922345,0
767,0.03068000000000004,5.001693942556992,-0.06562143649826817,0.059349506011614775,0
768,0.03072000000000008,4.99972120164681,-0.06858054471400928,0.06230499011644229,0
769,0.0307599999999999,5.000378781950543,-0.06956691411691203,0.06328770299088761,0
770,0.03079999999999994,5.000378781950543,-0.07318360191751903,0.06690070210296539,0
771,0.03083999999999998,4.99972120164681,-0.07121086311914367,0.06492424271326326,0
772,0.03088000000000002,5.000378781950543,-0.07252602231858225,0.0662356496756507,0
773,0.03092000000000006,4.99972120164681,-0.06595022630053791,0.059656070031699635,0
774,0.0309600000000001,4.99972120164681,-0.06595022630053791,0.05965225527359852,0
775,0.030999999999999917,5.000378781950543,-0.06693659570656622,0.06063477904578153,0
776,0.031039999999999957,5.000049991798719,-0.06167595886088427,0.05537026594674595,0
777,0.031079999999999997,5.000378781950543,-0.06726538550831525,0.060955785977333046,0
778,0.031120000000000037,5.000049991798719,-0.06660780590468694,0.060294269649167814,0
779,0.031160000000000077,5.000707572102282,-0.0715396529191989,0.06522215008702278,0
780,0.031199999999999894,5.000049991798719,-0.07384118151593398,0.06751968251032645,0
781,0.031239999999999934,4.999392411494816,-0.07745786929788322,0.0711323447771849,0
782,0.031279999999999974,5.000049991798719,-0.08534882440360501,0.07901924528103776,0
783,0.031320000000000014,5.000378781950543,-0.09093825089119083,0.08460458833462078,0
784,0.031360000000000054,4.99972120164681,-0.09882920586791545,0.09249143129961285,0
785,0.031400000000000095,4.999063621342738,-0.10474742205074437,0.0984055071471403,0
786,0.03143999999999991,4.999392411494816,-0.1100080586218566,0.10366197531329643,0
787,0.03147999999999995,4.99972120164681,-0.1136247462448944,0.107274466715388,0
788,0.03151999999999999,5.000049991798719,-0.11230958711109378,0.10595508379806251,0
789,0.03156000000000003,5.000049991798719,-0.11658385428821218,0.11022509988223295,0
790,0.03160000000000007,4.99972120164681,-0.1182278031965366,0.1118647706410825,0
791,0.03164000000000011,5.000049991798719,-0.11921417253994292,0.11284683503112097,0
792,0.03167999999999993,5.000049991798719,-0.11724143385193893,0.11086976483822458,0
793,0.03171999999999997,4.99972120164681,-0.11592627472395621,0.10955024790592487,0
794,0.03176000000000001,5.000049991798719,-0.11428232581100171,0.10790191514105746,0
795,0.03180000000000005,4.99972120164681,-0.1106656381908704,0.10428081787297155,0
796,0.03184000000000009,5.000049991798719,-0.11230958711109378,0.10592033160047512,0
797,0.03187999999999991,5.000378781950543,-0.10902168926734575,0.10262797327023811,0
798,0.03191999999999995,5.000378781950543,-0.10967926883715166,0.10328106731049824,0
799,0.03195999999999999,5.000378781950543,-0.10935047905231472,0.1029477672034845,0
800,0.03200000000000003,4.99972120164681,-0.1103368484064295,0.10392960169292748,0
801,0.03204000000000007,5.000707572102282,-0.1103368484064295,0.10392504253560408,0
802,0.03208000000000011,4.999063621342738,-0.11263837689474214,0.10622198782348938,0
803,0.032119999999999926,4.99972120164681,-0.11493990537658023,0.10851890931104474,0
804,0.032159999999999966,5.000049991798719,-0.11921417253994292,0.11278854593521584,0
805,0.032200000000000006,5.000707572102282,-0.12151570100325589,0.11508542056306968,0
806,0.032240000000000046,4.99972120164681,-0.13006423523867633,0.12362927791509629,0
807,0.032280000000000086,5.000707572102282,-0.13203697389564184,0.1255973168887543,0
808,0.032319999999999904,4.99972120164681,-0.14551735458997894,0.1390729753475765,0
809,0.032359999999999944,4.99972120164681,-0.15406588857258413,0.14761676478984823,0
810,0.032399999999999984,5.000049991798719,-0.15636741693706202,0.14991352655624243,0
811,0.032440000000000024,4.99972120164681,-0.1652447405670761,0.15878606177716773,0
812,0.032480000000000064,5.000378781950543,-0.17773875143590606,0.17127526267232238,0
813,0.032520000000000104,5.000378781950543,-0.1882600235954478,0.18179170353969157,0
814,0.03255999999999992,4.99972120164681,-0.19845250586784702,0.1919793334471779,0
815,0.03259999999999996,5.000049991798719,-0.21291925467551198,0.20644120906261149,0
816,0.03264,5.000378781950543,-0.22146778793782235,0.2149848485504561,0
817,0.03268000000000004,5.000049991798719,-0.2316602697835834,0.2251724162842605,0
818,0.03272000000000008,5.000049991798719,-0.24053759257410445,0.23404480486973397,0
819,0.0327599999999999,4.99972120164681,-0.2507300741728716,0.244232332414416,0
820,0.03279999999999994,5.000378781950543,-0.26158013508389405,0.2550774196660205,0
821,0.03283999999999998,5.000378781950543,-0.2665119809027278,0.26000427246345575,0
822,0.03288000000000002,4.999392411494816,-0.2721014061263543,0.26558868554670023,0
823,0.03292000000000006,4.999392411494816,-0.27867720045569355,0.2721594488593126,0
824,0.0329600000000001,5.000378781950543,-0.2809787284578157,0.2744559272106398,0
825,0.03299999999999992,5.000378781950543,-0.28656815357740495,0.28004028428727934,0
826,0.03303999999999996,5.000049991798719,-0.29182878894724706,0.28529583346356346,0
827,0.03308,4.99972120164681,-0.2951166860352364,0.288578626448563,0
828,0.03312000000000004,5.000049991798719,-0.29840458310923823,0.2918614017509468,0
829,0.03316000000000008,5.000378781950543,-0.3082682742471789,0.30171995368906884,0
830,0.033199999999999896,5.000049991798719,-0.3164880167655977,0.30993453981951735,0
831,0.033239999999999936,4.999392411494816,-0.3184607549569337,0.31190210467439844,0
832,0.033279999999999976,4.99972120164681,-0.3204334931431985,0.3138696528150057,0
833,0.033320000000000016,4.99972120164681,-0.32437896950050266,0.31780992265634456,0
834,0.033360000000000056,5.000378781950543,-0.3253653385866545,0.31879106899472837,0
835,0.033400000000000096,5.001036362253937,-0.3289820252250059,0.3224025168916207,0
836,0.033439999999999914,4.99972120164681,-0.326351707671536,0.31976694484071655,0
837,0.033479999999999954,4.99972120164681,-0.3237213901090291,0.3171313572621174,0
838,0.033519999999999994,5.000378781950543,-0.3214198622344283,0.3148245440896821,0
839,0.033560000000000034,5.000049991798719,-0.3138576991692664,0.3072570806814552,0
840,0.033600000000000074,5.000049991798719,-0.3020212698744679,0.2954153362344658,0
841,0.033640000000000114,5.000049991798719,-0.28886968155610887,0.28225841819048403,0
842,0.03367999999999993,4.99972120164681,-0.2724301958441417,0.2658135884147432,0
843,0.03371999999999997,5.000378781950543,-0.2513876536263073,0.24476568802984908,0
844,0.03376000000000001,5.000378781950543,-0.2260708442715611,0.21944350663920337,0
845,0.03380000000000005,5.000378781950543,-0.19516460837485777,0.18853188507178542,0
846,0.03384000000000009,4.999392411494816,-0.16787505866087404,0.16123693628587327,0
847,0.03387999999999991,5.000378781950543,-0.13170818411981328,0.12506464950484505,0
848,0.03391999999999995,5.000049991798719,-0.10047315481186896,0.0938241950216401,0
849,0.03395999999999999,4.99972120164681,-0.06759417530993413,0.060939777641465964,0
850,0.03400000000000003,5.000378781950543,-0.03635914357669136,0.02969929555888573,0
851,0.03404000000000007,4.99972120164681,-0.008412008934208556,0.001746698327411672,0
852,0.03408000000000011,5.000378781950543,0.011972960446309217,-0.01864374565074567,0
853,0.03411999999999993,5.000049991798719,0.03465945920099257,-0.04133573078115349,0
854,0.03415999999999997,5.000049991798719,0.05767474840510757,-0.0643565179089588,0
855,0.03420000000000001,5.000378781950543,0.0737854512124434,-0.08047272995827892,0
856,0.03424000000000005,5.000378781950543,0.0902249441804355,-0.09691774325732738,0
857,0.03428000000000009,5.000049991798719,0.10041742997579037,-0.1071157602440409,0
858,0.034319999999999906,5.000707572102282,0.11060991588943969,-0.1173137879810362,0
859,0.034359999999999946,4.99972120164681,0.11915845255308817,-0.1258678768721605,0
860,0.034399999999999986,5.000049991798719,0.12409030066589298,-0.13080528738917396,0
861,0.034440000000000026,4.99972120164681,0.1257342500429348,-0.13245480912022312,0
862,0.034480000000000066,4.99972120164681,0.12770698929941152,-0.13443313045403715,0
863,0.034520000000000106,5.000707572102282,0.12540546016728232,-0.13213719289657455,0
864,0.034559999999999924,5.000049991798719,0.12409030066589298,-0.13082763424165178,0
865,0.034599999999999964,5.000707572102282,0.12409030066589298,-0.13083324413486302,0
866,0.034640000000000004,4.99972120164681,0.11948724242641957,-0.12623580461076594,0
867,0.034680000000000044,5.000707572102282,0.12244635129190345,-0.12920054078969018,0
868,0.034720000000000084,4.999392411494816,0.12376151079085085,-0.13052133597652144,0
869,0.0347599999999999,5.000378781950543,0.12836456905254606,-0.1351300380774066,0
870,0.03479999999999994,4.99972120164681,0.1369131058876297,-0.14368422668033554,0
871,0.03483999999999998,4.99972120164681,0.1408585844546266,-0.1476353647216717,0
872,0.03488000000000002,4.99972120164681,0.14907833152531352,-0.15586077875152166,0
873,0.03492000000000006,5.000049991798719,0.1569692887843418,-0.16375741023336027,0
874,0.0349600000000001,4.999063621342738,0.1592708179979958,-0.16606462071279188,0
875,0.03499999999999992,4.99972120164681,0.1658466157838382,-0.1726461065871973,0
876,0.03503999999999996,5.000378781950543,0.17209362372496856,-0.1788988092199948,0
877,0.03508,4.99972120164681,0.176039102446966,-0.18284998901758476,0
878,0.03512000000000004,5.000049991798719,0.1763678923412454,-0.18318448615270883,0
879,0.03516000000000008,5.000049991798719,0.1773542620248027,-0.18417656902419727,0
880,0.0351999999999999,5.000378781950543,0.17373757319036792,-0.18056559910712439,0
881,0.03523999999999994,5.000378781950543,0.1684769349116572,-0.17531068525806237,0
882,0.03527999999999998,4.99972120164681,0.15828444833427735,-0.16512392840598772,0
883,0.03532000000000002,5.000049991798719,0.1444752731563955,-0.15132048803295345,0
884,0.03536000000000006,5.000378781950543,0.12902214880616825,-0.13587310335152158,0
885,0.0354000000000001,5.000049991798719,0.10370532864470776,-0.11056202750773053,0
886,0.035439999999999916,5.000049991798719,0.0787172990703113,-0.08557974668532636,0
887,0.035479999999999956,5.000378781950543,0.05142774127470057,-0.0582959418620044,0
888,0.035519999999999996,4.99972120164681,0.021836655483104705,-0.028710613049494127,0
889,0.035560000000000036,5.000049991798719,-0.0113711173519455,0.004491399012644504,0
890,0.035600000000000076,5.000378781950543,-0.0445788888829237,0.037693406189324596,0
891,0.035639999999999894,5.000378781950543,-0.07186844271912378,0.06497719230174599,0
892,0.035679999999999934,5.000049991798719,-0.10770653012615032,0.10080950882688368,0
893,0.035719999999999974,4.99972120164681,-0.13598245119521052,0.12907965606677796,0
894,0.035760000000000014,4.99972120164681,-0.16425837127968446,0.1573497995851024,0
895,0.035800000000000054,5.000378781950543,-0.1882600235954478,0.18134567280748434,0
896,0.035840000000000094,5.000049991798719,-0.21357683416050455,0.20665670196113556,0
897,0.03587999999999991,4.99972120164681,-0.23560574659173333,0.22867983087159655,0
898,0.03591999999999995,5.000049991798719,-0.24251033095838925,0.23557862981623623,0
899,0.03595999999999999,5.000049991798719,-0.2411951720360831,0.2342576837782293,0
900,0.03600000000000003,5.000049991798719,-0.24481185906712527,0.23786858220689805,0
901,0.03604000000000007,5.000049991798719,-0.24415427960817487,0.23720521286535995,0
902,0.03608000000000011,4.99972120164681,-0.23626332605783606,0.2293084683581223,0
903,0.03611999999999993,5.000378781950543,-0.2303451108431424,0.22338446131756487,0
904,0.03615999999999997,5.000049991798719,-0.21489199312885277,0.207925551113234,0
905,0.03620000000000001,5.000378781950543,-0.19713734687227985,0.19016511190666918,0
906,0.03624000000000005,5.000049991798719,-0.17905391046341235,0.1720758822915239,0
907,0.03628000000000009,5.000049991798719,-0.15932652482460002,0.1523427033932486,0
908,0.03631999999999991,4.99972120164681,-0.14387340573681423,0.13688379119534927,0
909,0.03635999999999995,4.99972120164681,-0.12743391702194856,0.12043850972168643,0
910,0.03639999999999999,4.99972120164681,-0.11329595646164246,0.10629475695529678,0
911,0.03644000000000003,5.000049991798719,-0.10343226290269213,0.09642527194380206,0
912,0.03648000000000007,5.000049991798719,-0.09060946109885244,0.08359667964120912,0
913,0.03652000000000011,4.99972120164681,-0.08008818767482774,0.07306961687189875,0
914,0.036559999999999926,5.000378781950543,-0.07844423869021762,0.07141987989456974,0
915,0.036599999999999966,5.000049991798719,-0.06595022630053791,0.05892008106325802,0
916,0.036640000000000006,5.000049991798719,-0.06463506709067811,0.057599137160792235,0
917,0.036680000000000046,4.99972120164681,-0.06890933451510713,0.06186762183899777,0
918,0.036720000000000086,4.99972120164681,-0.06364869768191721,0.05660120440273897,0
919,0.036759999999999904,5.000049991798719,-0.06200474866471477,0.05495147712180812,0
920,0.036799999999999944,5.000378781950543,-0.0626623282719858,0.05560328100028902,0
921,0.036839999999999984,5.000049991798719,-0.05115468506975916,0.044089864799218725,0
922,0.036880000000000024,5.000049991798719,-0.05279863410837703,0.045728043763356235,0
923,0.036920000000000064,5.000049991798719,-0.04819557679208804,0.04111921949077385,0
924,0.036960000000000104,5.000378781950543,-0.04129099077011207,0.034208869823920546,0
925,0.03699999999999992,5.000378781950543,-0.03734551301769716,0.030257631930677098,0
926,0.03703999999999996,5.000049991798719,-0.03340003524671499,0.02630639771494997,0
927,0.03708,4.999392411494816,-0.027481818555480722,0.020382428466489494,0
928,0.03712000000000004,4.99972120164681,-0.021892391642189743,0.014787253074325019,0
929,0.03716000000000008,5.000378781950543,-0.015316595226152155,0.00820571244799767,0
930,0.0371999999999999,4.99972120164681,-0.013343856291351444,0.0062272337611172235,0
931,0.03723999999999994,4.99972120164681,-0.0166317545134594,0.009509396878375459,0
932,0.03727999999999998,4.99972120164681,-0.017946913798717698,0.010818825894426481,0
933,0.03732000000000002,4.999063621342738,-0.025509079649145103,0.01837526649909224,0
934,0.03736000000000006,4.99972120164681,-0.030112137090063842,0.02297260390488759,0
935,0.0374000000000001,5.000049991798719,-0.03800309264438971,0.030857844821308572,0
936,0.03743999999999992,5.000049991798719,-0.05279863410837703,0.045647677230576195,0
937,0.03747999999999996,4.99972120164681,-0.06233353846841526,0.05517687830443124,0
938,0.03752,5.000378781950543,-0.07614271010627514,0.06898035260937893,0
939,0.03756000000000004,5.000049991798719,-0.09356856922517286,0.08640052053275156,0
940,0.03760000000000008,4.99972120164681,-0.10770653012615032,0.10053279655908735,0
941,0.037639999999999896,5.000049991798719,-0.12315964990164728,0.11598023796370105,0
942,0.037679999999999936,5.000049991798719,-0.1310506045677572,0.12386552094493838,0
943,0.037719999999999976,4.999392411494816,-0.14321582619461398,0.1360250777545613,0
944,0.037760000000000016,5.000049991798719,-0.15307951927151348,0.14588311306286822,0
945,0.037800000000000056,5.000049991798719,-0.15603862717110994,0.14883657042288917,0
946,0.037840000000000096,5.000049991798719,-0.15735378623411445,0.15014608635508317,0
947,0.037879999999999914,4.99972120164681,-0.16294321222794844,0.1557298768059907,0
948,0.037919999999999954,4.99972120164681,-0.16261442246467878,0.15539545926616724,0
949,0.037959999999999994,4.99972120164681,-0.15768257599953056,0.15045799296869455,0
950,0.038000000000000034,5.000378781950543,-0.15242193973679719,0.14519174499508944,0
951,0.038040000000000074,4.99972120164681,-0.1481476727480983,0.1409118745935604,0
952,0.038080000000000114,5.000378781950543,-0.1405855080204771,0.13334411492710363,0
953,0.03811999999999993,5.000049991798719,-0.13532487164661305,0.12807789226371455,0
954,0.03815999999999997,5.000707572102282,-0.13006423523867633,0.12281167839024107,0
955,0.03820000000000001,4.999392411494816,-0.12315964990164728,0.11590152458570215,0
956,0.03824000000000005,5.000707572102282,-0.11921417253994292,0.11195048792791282,0
957,0.03828000000000009,5.000049991798719,-0.11428232581100171,0.10701309124706807,0
958,0.03831999999999991,4.99972120164681,-0.10606258119668784,0.09878780619714565,0
959,0.03835999999999995,5.000378781950543,-0.09784283649996468,0.09056253075257831,0
960,0.03839999999999999,5.000049991798719,-0.09455493859824966,0.08726911196160733,0
961,0.03844000000000003,5.001365152405508,-0.08929430192818714,0.08200296443105413,0
962,0.03848000000000007,5.000378781950543,-0.08600640399234578,0.07870956583301662,0
963,0.03852000000000011,5.000707572102282,-0.08074576726775658,0.07344343881340593,0
964,0.03855999999999993,4.99972120164681,-0.07548513050968754,0.06817732229571989,0
965,0.03859999999999997,5.000707572102282,-0.07384118151593398,0.06652790424533214,0
966,0.03864000000000001,4.998734831190575,-0.060689589448612954,0.053370853991285494,0
967,0.03868000000000005,5.000707572102282,-0.05838806081543309,0.05106387820756045,0
968,0.03872000000000009,5.000707572102282,-0.053456213722917104,0.04612659516629672,0
969,0.038759999999999906,4.99972120164681,-0.05082589526164695,0.04349085212303713,0
970,0.038799999999999946,5.001036362253937,-0.052469844300912574,0.045129388111374985,0
971,0.038839999999999986,4.998734831190575,-0.04951073602790314,0.04216487848214434,0
972,0.038880000000000026,5.002022732708393,-0.030112137090063842,0.0227608900457755,0
973,0.038920000000000066,4.998077250885994,-0.03734551301769716,0.029988888494895283,0
974,0.038960000000000106,4.999392411494816,-0.03044092690630805,0.02307893708667172,0
975,0.038999999999999924,5.000378781950543,-0.026166659285104213,0.01879931651131289,0
976,0.039039999999999964,5.000707572102282,-0.027481818555480722,0.02010913533055056,0
977,0.039080000000000004,5.000378781950543,-0.027481818555480722,0.020103807542099894,0
978,0.039120000000000044,5.000049991798719,-0.03142729635426868,0.024043970374131612,0
979,0.039160000000000084,4.999392411494816,-0.030112137090063842,0.02272350912320445,0
980,0.0391999999999999,5.000378781950543,-0.028139398189897927,0.020745481374021796,0
981,0.03923999999999994,5.000378781950543,-0.0340576148765004,0.02665842250631592,0
982,0.03927999999999998,5.000049991798719,-0.035372774134525484,0.027968319661074076,0
983,0.03932000000000002,5.000707572102282,-0.035372774134525484,0.027963071164510744,0
984,0.03936000000000006,5.000378781950543,-0.04161978058197445,0.034204842877090386,0
985,0.0394000000000001,5.000378781950543,-0.04030462133375036,0.03288446281000876,0
986,0.03943999999999992,4.999392411494816,-0.04063341114600001,0.03320804587305687,0
987,0.03947999999999996,4.99972120164681,-0.04096220095812057,0.03353164315860188,0
988,0.03952,5.000378781950543,-0.046551627744407784,0.03911589179323463,0
989,0.03956000000000004,5.000049991798719,-0.048853156410254436,0.04141225683396721,0
990,0.03960000000000008,5.000378781950543,-0.056415321981929514,0.04896927345801161,0
991,0.0396399999999999,5.000049991798719,-0.06200474866471477,0.05455356602091556,0
992,0.03967999999999994,5.000378781950543,-0.07088207331895803,0.06342577153261517,0
993,0.03971999999999998,4.99972120164681,-0.08074576726775658,0.07328436146511763,0
994,0.03976000000000002,5.000049991798719,-0.08600640399234578,0.07853990944788916,0
995,0.03980000000000006,5.000707572102282,-0.09225341005923197,0.08478184219498683,0
996,0.0398400000000001,5.000378781950543,-0.1027746833278755,0.09529805771274068,0
997,0.039879999999999916,5.000049991798719,-0.11493990537658023,0.10745823772564256,0
998,0.039919999999999956,5.000049991798719,-0.12546117835382642,0.11797448452767809,0
999,0.039959999999999996,5.000378781950543,-0.14255824665188005,0.13506654265593518,0
1000,0.040000000000000036,4.99972120164681,-0.1550522578724497,0.1475555598562603,0
1001,0.040040000000000076,4.999392411494816,-0.16787505866087404,0.16037338291744482,0
1002,0.040080000000000116,5.000049991798719,-0.17872512070673813,0.17121848367184075,0
1003,0.040119999999999933,5.000378781950543,-0.1912191313653681,0.1837075496168549,0
1004,0.040159999999999973,5.000049991798719,-0.20305556233521876,0.19553905259233548,0
1005,0.040200000000000014,5.000049991798719,-0.2171935213182073,0.20967210044090562,0
1006,0.040240000000000054,4.99972120164681,-0.22344052636985184,0.21591421135810107,0
1007,0.040280000000000094,5.000378781950543,-0.23297542872182958,0.2254442367149278,0
1008,0.04031999999999991,5.000707572102282,-0.23626332605783606,0.22872727433372103,0
1009,0.04035999999999995,5.000049991798719,-0.24382548987849312,0.23628459585305245,0
1010,0.04039999999999999,5.000378781950543,-0.2523740228054256,0.24482830403180672,0
1011,0.04044000000000003,4.99972120164681,-0.2546755508852022,0.24712502505312206,0
1012,0.04048000000000007,5.000378781950543,-0.26026497619360855,0.2527096611286623,0
1013,0.04052000000000011,5.000378781950543,-0.2642104528578184,0.256650366520788,0
1014,0.04055999999999993,5.000049991798719,-0.27012866781671335,0.2625638283028755,0
1015,0.04059999999999997,5.000378781950543,-0.2697998780979539,0.26223030363638733,0
1016,0.04064000000000001,5.000049991798719,-0.2674983500627522,0.25992405901564464,0
1017,0.04068000000000005,4.99972120164681,-0.2648680322999141,0.2572890431618685,0
1018,0.04072000000000009,4.99972120164681,-0.2665119809027278,0.2589283123000681,0
1019,0.04075999999999991,5.000707572102282,-0.2632240836936356,0.25563575438371217,0
1020,0.04079999999999995,5.000378781950543,-0.2612513453615303,0.25365837423202525,0
1021,0.04083999999999999,5.000049991798719,-0.2586210275776379,0.2510234336458692,0
1022,0.04088000000000003,4.99972120164681,-0.25401797143452803,0.24641577384675384,0
1023,0.04092000000000007,4.999392411494816,-0.25270281253152227,0.24509603056224477,0
1024,0.04096000000000011,4.99972120164681,-0.24415427960817487,0.23654293265944396,0
1025,0.040999999999999925,5.000049991798719,-0.2408663823051626,0.23325048990587907,0
1026,0.041039999999999965,5.000049991798719,-0.23494816712508126,0.22732774893029967,0
1027,0.041080000000000005,4.99972120164681,-0.23297542872182958,0.22535050451206057,0
1028,0.041120000000000045,4.99972120164681,-0.23198905951835075,0.22435964919886264,0
1029,0.041160000000000085,5.000049991798719,-0.22968753137209907,0.22205365497221924,0
1030,0.0411999999999999,5.000049991798719,-0.2273860032191295,0.21974768089154553,0
1031,0.04123999999999994,4.99972120164681,-0.22179657767683592,0.2141538296968963,0
1032,0.04127999999999998,5.000049991798719,-0.2185086802805486,0.21086152704556352,0
1033,0.04132000000000002,5.000378781950543,-0.21127530596064387,0.20362376798918547,0
1034,0.04136000000000006,5.000378781950543,-0.2063434597955987,0.19868755772680083,0
1035,0.0414000000000001,4.99972120164681,-0.19943887511309688,0.19177862970595447,0
1036,0.04143999999999992,5.000378781950543,-0.19417823912431548,0.1865136712569837,0
1037,0.04147999999999996,5.000378781950543,-0.18332817728789086,0.17565930795698365,0
1038,0.04152,5.000049991798719,-0.17313569482264318,0.16546254514253145,0
1039,0.04156000000000004,4.99972120164681,-0.16294321222794844,0.15526580343005852,0
1040,0.04160000000000008,5.000378781950543,-0.1471613034398055,0.13947965687191732,0
1041,0.0416399999999999,4.99972120164681,-0.13861276938427458,0.13092690650981925,0
1042,0.04167999999999994,5.000049991798719,-0.12348843968092783,0.11579838207828483,0
1043,0.04171999999999998,5.000049991798719,-0.10902168926734575,0.10132745862913999,0
1044,0.04176000000000002,4.99972120164681,-0.09948678544589158,0.09178840357828974,0
1045,0.04180000000000006,4.99972120164681,-0.08567761419804089,0.07797510302004784,0
1046,0.0418400000000001,5.000049991798719,-0.0629911180754263,0.055284499618181104,0
1047,0.04187999999999992,5.000049991798719,-0.04720920736386795,0.039498503769939575,0
1048,0.04191999999999996,5.000049991798719,-0.03372882506167206,0.02601405858435471,0
1049,0.04196,5.000049991798719,-0.020248442542986647,0.01252963554559508,0
1050,0.04200000000000004,5.000049991798719,-0.006768059808773,-0.0009547652360623604,0
1051,0.04204000000000008,4.999392411494816,0.003753214669504526,-0.011480035180542775,0
1052,0.042079999999999895,5.000049991798719,0.01328811977796078,-0.02101891306605555,0
1053,0.042119999999999935,5.000049991798719,0.021836655483104705,-0.0295713987519097,0
1054,0.042159999999999975,5.000378781950543,0.03202914047399413,-0.03976781082066899,0
1055,0.042200000000000015,5.000049991798719,0.03564582872569445,-0.04338840314161141,0
1056,0.042240000000000055,5.000049991798719,0.03827614746376892,-0.04602260283521947,0
1057,0.042280000000000095,5.000378781950543,0.037618567778495635,-0.04536888088739746,0
1058,0.04231999999999991,5.000049991798719,0.03564582872569445,-0.04339997625029904,0
1059,0.04235999999999995,4.99972120164681,0.028083662398618273,-0.03584162091421869,0
1060,0.04239999999999999,4.99972120164681,0.03202914047399413,-0.039790886453632796,0
1061,0.04244000000000003,4.99972120164681,0.026110923367741706,-0.03387643318291805,0
1062,0.04248000000000007,5.000707572102282,0.015918438447348998,-0.023687688368727394,0
1063,0.04252000000000011,4.99972120164681,0.011644170613713423,-0.019417136811830965,0
1064,0.04255999999999993,4.99972120164681,0.005397163818512657,-0.013173822364487331,0
1065,0.04259999999999997,5.000378781950543,0.00013652655288240445,-0.007916853419120629,0
1066,0.04264000000000001,4.99972120164681,-0.010055958056451306,0.002271986995546621,0
1067,0.04268000000000005,5.000049991798719,-0.014987805404005308,0.007200214371326535,0
1068,0.04272000000000009,5.000049991798719,-0.01926207308192608,0.011470886396952762,0
1069,0.04275999999999991,5.000049991798719,-0.025180289830972882,0.017385531909063556,0
1070,0.04279999999999995,5.000378781950543,-0.03372882506167206,0.025930520413356167,0
1071,0.04283999999999999,5.000049991798719,-0.04096220095812057,0.03316037418839038,0
1072,0.04288000000000003,5.000378781950543,-0.045565258314247556,0.037759934121850275,0
1073,0.04292000000000007,5.000707572102282,-0.04720920736386795,0.03940041054059809,0
1074,0.04296000000000011,5.000049991798719,-0.05378500352999273,0.04597275895998451,0
1075,0.04299999999999993,4.99972120164681,-0.058716850620562686,0.05090118327958265,0
1076,0.04303999999999997,5.000049991798719,-0.05805927101017365,0.0502402059649133,0
1077,0.04308000000000001,5.000378781950543,-0.06364869768191721,0.05582626008928604,0
1078,0.04312000000000005,4.99972120164681,-0.06036079964426265,0.052535014750681314,0
1079,0.04316000000000009,4.99972120164681,-0.0629911180754263,0.055162011216119716,0
1080,0.043199999999999905,4.999392411494816,-0.0629911180754263,0.05515871467371711,0
1081,0.043239999999999945,5.000049991798719,-0.05378500352999273,0.04594932909659488,0
1082,0.043279999999999985,5.000378781950543,-0.0491819462191435,0.04134302635145576,0
1083,0.043320000000000025,5.000049991798719,-0.04096220095812057,0.03312006133952039,0
1084,0.043360000000000065,5.000378781950543,-0.031756086169998185,0.023910752569135746,0
1085,0.043400000000000105,4.999063621342738,-0.021563601822605624,0.01371510009269819,0
1086,0.04343999999999992,5.000378781950543,-0.0113711173519455,0.003519473430072334,0
1087,0.04347999999999996,5.000049991798719,-0.0031513717215847087,-0.0047033883720177805,0
1088,0.04352,5.000049991798719,0.0030956350107915753,-0.01095348517343428,0
1089,0.04356000000000004,5.000378781950543,0.012301750279031881,-0.020162664326277335,0
1090,0.04360000000000008,4.99972120164681,0.023809394504130166,-0.03167334617049636,0
1091,0.0436399999999999,5.000049991798719,0.030713981113518377,-0.03858094405318241,0
1092,0.04367999999999994,4.99972120164681,0.03597461856751347,-0.04384456635501455,0
1093,0.04371999999999998,4.99972120164681,0.039920096679152195,-0.04779300281009502,0
1094,0.04376000000000002,4.99972120164681,0.04682468341804723,-0.054700521309804295,0
1095,0.04380000000000006,4.99972120164681,0.046495893572083224,-0.0543746365644974,0
1096,0.0438400000000001,4.99972120164681,0.048139842803156765,-0.056021464159242584,0
1097,0.04387999999999992,5.000378781950543,0.05701716870504489,-0.0649016416116901,0
1098,0.04391999999999996,4.99972120164681,0.05701716870504489,-0.06490446627371124,0
1099,0.04396,5.000378781950543,0.06293538602358648,-0.07082548129101096,0
1100,0.04400000000000004,5.000049991798719,0.06622328455134852,-0.07411615048024353,0
1101,0.04404000000000008,5.000378781950543,0.07016876280110178,-0.07806437228085514,0
1102,0.0440799999999999,5.000378781950543,0.06753844396594139,-0.07543676981331635,0
1103,0.04411999999999994,5.000049991798719,0.07181271207711976,-0.07971372703695431,0
1104,0.04415999999999998,4.99972120164681,0.0787172990703113,-0.08662097581621653,0
1105,0.04420000000000002,5.000378781950543,0.08036124836247038,-0.08826755949752813,0
1106,0.04424000000000006,4.99972120164681,0.0787172990703113,-0.08662621712777155,0
1107,0.0442800000000001,5.000378781950543,0.07838850921225148,-0.08630000665622886,0
1108,0.044319999999999915,4.999392411494816,0.07937487878680298,-0.08728892801297275,0
1109,0.044359999999999955,5.000049991798719,0.0787172990703113,-0.08663387240660422,0
1110,0.044399999999999995,5.000049991798719,0.07773092949650393,-0.08564999920380087,0
1111,0.044440000000000035,4.99972120164681,0.0770733497812526,-0.0849948880540786,0
1112,0.044480000000000075,4.99972120164681,0.08299156723636938,-0.09091554620358697,0
1113,0.044520000000000115,5.000378781950543,0.0902249441804355,-0.09815133590593753,0
1114,0.04455999999999993,4.999392411494816,0.0964719515893393,-0.10440072807274084,0
1115,0.04459999999999997,5.000049991798719,0.10140379957517373,-0.10933493275250336,0
1116,0.04464000000000001,4.999392411494816,0.10896596654054455,-0.11689942828493505,0
1117,0.04468000000000005,4.99972120164681,0.11981603229987327,-0.12775179442225104,0
1118,0.04472000000000009,5.000378781950543,0.12803577917591782,-0.13597381342569187,0
1119,0.04475999999999991,4.999392411494816,0.1388858451689418,-0.14682612323469207,0
1120,0.04479999999999995,5.000049991798719,0.15039349106364885,-0.15833598457381437,0
1121,0.04483999999999999,5.000049991798719,0.16255871688489407,-0.1705033974084606,0
1122,0.04488000000000003,5.000049991798719,0.17472394287104745,-0.18267078191823344,0
1123,0.04492000000000007,4.99972120164681,0.18162853066600876,-0.1895774996889506,0
1124,0.04496000000000011,4.99972120164681,0.18393005994272793,-0.19188113033616389,0
1125,0.04499999999999993,4.99972120164681,0.18919069831150453,-0.19714384141345803,0
1126,0.04503999999999997,5.000378781950543,0.19412254680997768,-0.20207773390243933,0
1127,0.04508000000000001,4.999392411494816,0.18951948821056797,-0.19747669052017724,0
1128,0.04512000000000005,5.000378781950543,0.1803133710819441,-0.1882725597806702,0
1129,0.04516000000000009,4.99972120164681,0.1740663630838078,-0.1820275092896304,0
1130,0.04519999999999991,4.99972120164681,0.16288750677424663,-0.17085058155183647,0
1131,0.04523999999999995,5.000049991798719,0.1441464832738101,-0.15211145763520822,0
1132,0.04527999999999999,5.000049991798719,0.12606303991870926,-0.1340298848240055,0
1133,0.04532000000000003,4.99972120164681,0.10041742997579037,-0.10838611633380119,0
1134,0.04536000000000007,5.000049991798719,0.08923857459362991,-0.09720907326257536,0
1135,0.04540000000000011,4.999063621342738,0.06326417587580183,-0.0712364576639814,0
1136,0.045439999999999925,4.999392411494816,0.039920096679152195,-0.04789413234561962,0
1137,0.045479999999999965,4.999392411494816,0.02216544531962629,-0.030141205574863494,0
1138,0.045520000000000005,5.000378781950543,0.0021092655236763236,-0.010086721030266518,0
1139,0.045560000000000045,5.000049991798719,-0.018275703619711994,0.010296582246412195,0
1140,0.045600000000000085,5.001036362253937,-0.02781060837275358,0.019829850563942916,0
1141,0.0456399999999999,4.999063621342738,-0.03866067227056637,0.03067830750332866,0
1142,0.04567999999999994,4.99972120164681,-0.048853156410254436,0.040869214206889146,0
1143,0.04571999999999998,5.000378781950543,-0.05674411178783788,0.04875862171519154,0
1144,0.04576000000000002,5.000049991798719,-0.058716850620562686,0.05072984228936122,0
1145,0.04580000000000006,5.000049991798719,-0.05674411178783788,0.048755614852019936,0
1146,0.0458400000000001,5.000378781950543,-0.059045640425562415,0.051055684581613726,0
1147,0.04587999999999992,5.001036362253937,-0.059374430230432304,0.05138304521672098,0
1148,0.04591999999999996,4.999392411494816,-0.05608653217589139,0.048093747772004085,0
1149,0.04596,4.99972120164681,-0.046880417554202566,0.0388862635802817,0
1150,0.04600000000000004,4.99972120164681,-0.04260615001678679,0.03461065633286876,0
1151,0.04604000000000008,4.99972120164681,-0.04063341114600001,0.032636607651354566,0
1152,0.0460799999999999,5.000378781950543,-0.033071245431629134,0.025073162064099763,0
1153,0.04611999999999994,4.99972120164681,-0.030112137090063842,0.02211280382540913,0
1154,0.04615999999999998,5.000049991798719,-0.026824238920549456,0.018823685771785573,0
1155,0.04620000000000002,5.000049991798719,-0.01991965272276132,0.011917909739505433,0
1156,0.04624000000000006,4.99972120164681,-0.013343856291351444,0.005340953559166209,0
1157,0.0462800000000001,5.000378781950543,-0.012028696998925656,0.004024664638664618,0
1158,0.04631999999999992,5.000378781950543,-0.004466531027802631,-0.0035386008050432294,0
1159,0.04635999999999996,4.99972120164681,-0.0005210531030302584,-0.007485148012924436,0
1160,0.0464,5.000378781950543,-0.0024937920677107622,-0.005513448108543206,0
1161,0.04644000000000004,4.999063621342738,0.006712323140007484,-0.014720572121067949,0
1162,0.04648000000000008,5.000049991798719,0.013945699444547363,-0.021954926942887698,0
1163,0.046519999999999895,5.000049991798719,0.02085028597429857,-0.028860461671006393,0
1164,0.046559999999999935,4.99972120164681,0.024138184341410046,-0.03214927788683422,0
1165,0.046599999999999975,5.000378781950543,0.030713981113518377,-0.03872596212791496,0
1166,0.046640000000000015,5.000707572102282,0.03400187951848738,-0.04201471759266409,0
1167,0.046680000000000055,4.99972120164681,0.03959130683582415,-0.047604971531783905,0
1168,0.046720000000000095,4.99972120164681,0.045180734189481195,-0.053195195041064056,0
1169,0.04675999999999991,5.000049991798719,0.046495893572083224,-0.05451112008560728,0
1170,0.04679999999999995,5.000049991798719,0.044851944344144246,-0.0528679059990453,0
1171,0.04683999999999999,5.000049991798719,0.052414110818605225,-0.0604307770680752,0
1172,0.04688000000000003,4.999392411494816,0.05701716870504489,-0.06503450897666913,0
1173,0.04692000000000007,4.999392411494816,0.05833232810566989,-0.06635031180206322,0
1174,0.04696000000000011,5.002022732708393,0.05635958900548195,-0.06437818550492336,0
1175,0.04699999999999993,4.999063621342738,0.04912621234330475,-0.05714539100037071,0
1176,0.04703999999999997,4.999392411494816,0.03959130683582415,-0.047611036982020696,0
1177,0.04708000000000001,5.000378781950543,0.03597461856751347,-0.04399486951190697,0
1178,0.04712000000000005,4.998734831190575,0.03268672015498804,-0.04070746118483444,0
1179,0.04716000000000009,4.999063621342738,0.02019270630239349,-0.02821390668376632,0
1180,0.04719999999999991,4.99972120164681,0.005725953648695714,-0.01374758262711303,0
1181,0.04723999999999995,4.998734831190575,-0.0008498429307955274,-0.007172183870254652,0
1182,0.04727999999999999,4.99972120164681,-0.01926207308192608,0.011239679251959706,0
1183,0.04732000000000003,5.001036362253937,-0.035043984320212454,0.027021254273728208,0
1184,0.04736000000000007,5.002680313010939,-0.04951073602790314,0.041487700595358855,0
1185,0.04740000000000011,5.000378781950543,-0.05805927101017365,0.05003596103946584,0
1186,0.04743999999999993,5.000049991798719,-0.06792296511142272,0.0598994114672671,0
1187,0.04747999999999997,4.99972120164681,-0.07581392030804664,0.06779015387136009,0
1188,0.04752000000000001,5.000378781950543,-0.08173213665616903,0.07370818832345302,0
1189,0.04756000000000005,5.001036362253937,-0.08863672234206758,0.08061262302479291,0
1190,0.04760000000000009,4.999392411494816,-0.09323977943388458,0.08521556005787753,0
1191,0.047639999999999905,5.000049991798719,-0.09356856922517286,0.0855442607300026,0
1192,0.047679999999999945,5.000049991798719,-0.09258219985091413,0.08455783318928152,0
1193,0.047719999999999985,5.000049991798719,-0.08041697747135755,0.07239258360848529,0
1194,0.047760000000000025,5.000378781950543,-0.08041697747135755,0.07239258738438169,0
1195,0.047800000000000065,4.999392411494816,-0.0820609264520449,0.07403657112940781,0
1196,0.047840000000000105,4.99972120164681,-0.06956691411691203,0.06154262455775674,0
1197,0.04787999999999992,5.000378781950543,-0.05674411178783788,0.0487199190014037,0
1198,0.04791999999999996,4.99972120164681,-0.05312742391571186,0.045103358920731605,0
1199,0.04796,5.000707572102282,-0.0445788888829237,0.0365549827070223,0
1200,0.04800000000000004,4.99972120164681,-0.04194857039370768,0.03392485407280211,0
1201,0.04804000000000008,5.000049991798719,-0.029125767640559533,0.021102272218260353,0
1202,0.0480799999999999,5.000049991798719,-0.023536340738185738,0.015513097265200053,0
1203,0.04811999999999994,4.99972120164681,-0.018275703619711994,0.010252743153247888,0
1204,0.04815999999999998,5.000378781950543,-0.00939837840793746,0.001375732011109923,0
1205,0.04820000000000002,5.000049991798719,-0.004466531027802631,-0.0035557702309589947,0
1206,0.04824000000000006,5.000049991798719,0.001780475694892425,-0.009802400742435477,0
1207,0.0482800000000001,5.000049991798719,0.0076986926324629085,-0.01572021039150097,0
1208,0.04831999999999992,4.99972120164681,0.008356272294735026,-0.016377351684435965,0
1209,0.04835999999999996,4.99972120164681,0.014274489278030808,-0.02229509921460332,0
1210,0.0484,4.999392411494816,0.01328811977796078,-0.021308229175239404,0
1211,0.04844000000000004,5.000378781950543,0.012630540111881347,-0.020650117881909888,0
1212,0.04848000000000008,4.99972120164681,0.018548757124844717,-0.026567772178458293,0
1213,0.0485199999999999,5.000707572102282,0.022823024993048696,-0.030841446240454054,0
1214,0.04855999999999994,4.99972120164681,0.023480604666976643,-0.031498401018331,0
1215,0.04859999999999998,4.99972120164681,0.028083662398618273,-0.03610080276460656,0
1216,0.04864000000000002,4.999392411494816,0.028412452237539368,-0.036428905529950054,0
1217,0.04868000000000006,4.99972120164681,0.028412452237539368,-0.03642818736983873,0
1218,0.0487200000000001,5.000049991798719,0.027097292882612076,-0.03511227877051694,0
1219,0.048759999999999915,5.000049991798719,0.031700350633686175,-0.039714556195735023,0
1220,0.048799999999999955,4.99972120164681,0.028083662398618273,-0.03609705655674078,0
1221,0.048839999999999995,4.99972120164681,0.025124553854007567,-0.033137105534092506,0
1222,0.048880000000000035,4.999392411494816,0.02676850304419573,-0.034780181176657377,0
1223,0.048920000000000075,5.000049991798719,0.028741242076586612,-0.03675201559692973,0
1224,0.048960000000000115,5.000707572102282,0.027097292882612076,-0.035107130731995215,0
1225,0.04899999999999993,5.000378781950543,0.01953512663099438,-0.027543997756791685,0
1226,0.04903999999999997,5.000049991798719,0.02216544531962629,-0.030173318675987576,0
1227,0.04908000000000001,5.000707572102282,0.022494235156274286,-0.030501079704683617,0
1228,0.04912000000000005,5.000378781950543,0.01821996728971463,-0.026225751999547145,0
1229,0.04916000000000009,5.000378781950543,0.013945699444547363,-0.021950393293624706,0
1230,0.04919999999999991,5.000707572102282,0.015260858779241576,-0.02326443075438557,0
1231,0.04923999999999995,5.000049991798719,0.014274489278030808,-0.022276908375615453,0
1232,0.04927999999999999,4.99972120164681,0.010986590948902406,-0.0189878261754043,0
1233,0.04932000000000003,5.000049991798719,0.007041112970698912,-0.015041133343246041,0
1234,0.04936000000000007,4.99972120164681,0.011644170613713423,-0.019642945160632065,0
1235,0.04940000000000011,5.001036362253937,0.006383533309443135,-0.014381031070803206,0
1236,0.04943999999999993,5.000378781950543,0.006712323140007484,-0.014708513168166126,0
1237,0.04947999999999997,4.99972120164681,0.008356272294735026,-0.016351123654878508,0
1238,0.04952000000000001,5.000378781950543,0.005725953648695714,-0.013719435419379651,0
1239,0.04956000000000005,5.000378781950543,0.007041112970698912,-0.015033194244386656,0
1240,0.04960000000000009,5.000378781950543,0.006383533309443135,-0.014374183193042511,0
1241,0.049639999999999906,5.000049991798719,0.005397163818512657,-0.013386351433911044,0
1242,0.049679999999999946,5.000049991798719,0.0024380553525874815,-0.01042574983718518,0
1243,0.049719999999999986,5.000049991798719,-0.0008498429307955274,-0.00713632757644634,0
1244,0.049760000000000026,5.000049991798719,0.001122896037706475,-0.009107511737611776,0
1245,0.049800000000000066,4.99972120164681,0.004410794328726292,-0.01239382440841684,0
1246,0.049840000000000106,4.99972120164681,0.00506837398845672,-0.013049787652683296,0
1247,0.049879999999999924,5.000049991798719,0.009013851957515154,-0.01699361842918213,0
1248,0.049919999999999964,5.000049991798719,0.003424424840084442,-0.011402513360772665,0
1249,0.049960000000000004,4.99972120164681,0.006712323140007484,-0.014688702970495349,0
1250,0.050000000000000044,5.000378781950543,0.007041112970698912,-0.015015753391481645,0
1251,0.050040000000000084,5.000049991798719,0.00506837398845672,-0.013041244300263807,0
1252,0.0500799999999999,5.000049991798719,0.01065780111668721,-0.018628870640998024,0
1253,0.05011999999999994,4.999392411494816,0.009671431620803153,-0.017640669700360913,0
1254,0.05015999999999998,5.000378781950543,0.012630540111881347,-0.020597916111205143,0
1255,0.05020000000000002,5.000049991798719,0.014274489278030808,-0.02223997258392589,0
1256,0.05024000000000006,5.000378781950543,0.016576018115963126,-0.024539578138029268,0
1257,0.0502800000000001,5.000049991798719,0.016904807950460177,-0.024866414121598193,0
1258,0.05031999999999992,5.000378781950543,0.016247228281592724,-0.02420685005850908,0
1259,0.05035999999999996,5.000049991798719,0.018548757124844717,-0.026506363988554327,0
1260,0.0504,5.000049991798719,0.015589648613231935,-0.02354521006955905,0
1261,0.05044000000000004,5.000378781950543,0.01756238761983417,-0.02551587319991149,0
1262,0.05048000000000008,5.000049991798719,0.01756238761983417,-0.0255137668806001,0
1263,0.0505199999999999,5.000378781950543,0.022494235156274286,-0.03044347768096825,0
1264,0.05055999999999994,5.000049991798719,0.01789117745471111,-0.02583825285336707,0
1265,0.05059999999999998,5.000378781950543,0.014603279111640999,-0.022548157021579147,0
1266,0.05064000000000002,4.99972120164681,0.016904807950460177,-0.024847458036776737,0
1267,0.05068000000000006,4.99972120164681,0.018877546960101396,-0.02681793891615669,0
1268,0.0507200000000001,5.000378781950543,0.019206336795484613,-0.027144440343389233,0
1269,0.050759999999999916,4.99972120164681,0.020521496138282788,-0.02845728102938188,0
1270,0.050799999999999956,5.000049991798719,0.02019270630239349,-0.02812614231774909,0
1271,0.050839999999999996,5.000049991798719,0.019206336795484613,-0.027137393746356084,0
1272,0.050880000000000036,4.999063621342738,0.022823024993048696,-0.030751672721371325,0
1273,0.050920000000000076,4.99972120164681,0.021507865646709548,-0.029434074025571362,0
1274,0.050960000000000116,5.000049991798719,0.023809394504130166,-0.0317331334382469,0
1275,0.050999999999999934,5.000378781950543,0.024795764016348754,-0.03271700344253692,0
1276,0.051039999999999974,5.000049991798719,0.022823024993048696,-0.030741734880696828,0
1277,0.051080000000000014,5.000049991798719,0.026110923367741706,-0.03402707371927979,0
1278,0.051120000000000054,5.000707572102282,0.0264397132059056,-0.03435327405727253,0
1279,0.051160000000000094,5.000378781950543,0.027097292882612076,-0.035008234303721096,0
1280,0.05119999999999991,5.000049991798719,0.0313715607935042,-0.0392798528887065,0
1281,0.05123999999999995,5.000378781950543,0.031042770953448276,-0.03894838386199458,0
1282,0.05127999999999999,5.000049991798719,0.03334429983648583,-0.041247203732986126,0
1283,0.05132000000000003,5.000378781950543,0.0323579303144281,-0.04025809540930937,0
1284,0.05136000000000007,5.000049991798719,0.03202914047399413,-0.03992653701395623,0
1285,0.05140000000000011,4.99972120164681,0.030385191273714543,-0.03827978954218406,0
1286,0.05143999999999993,5.000378781950543,0.028083662398618273,-0.03597543271620042,0
1287,0.05147999999999997,5.000049991798719,0.024795764016348754,-0.03268467674127735,0
1288,0.05152000000000001,5.000707572102282,0.027097292882612076,-0.03498331841119756,0
1289,0.05156000000000005,5.000049991798719,0.03202914047399413,-0.039912249241069606,0
1290,0.05160000000000009,4.999392411494816,0.031700350633686175,-0.03958051311305136,0
1291,0.05163999999999991,4.99972120164681,0.027754872559823354,-0.035632059264686544,0
1292,0.05167999999999995,5.000707572102282,0.028741242076586612,-0.036615423560004676,0
1293,0.05171999999999999,5.000378781950543,0.027426082721154613,-0.03529722957647089,0
1294,0.05176000000000003,5.000049991798719,0.027754872559823354,-0.035622955421103566,0
1295,0.05180000000000007,5.000378781950543,0.027426082721154613,-0.03529107226362081,0
1296,0.05184000000000011,5.000049991798719,0.025453343691792682,-0.033315210632255204,0
1297,0.051879999999999926,4.99972120164681,0.0264397132059056,-0.034298428303193004,0
1298,0.051919999999999966,5.000378781950543,0.030056401434036775,-0.03791193548942367,0
1299,0.051960000000000006,5.000049991798719,0.029727611594485073,-0.03757993545211802,0
1300,0.052000000000000046,5.000707572102282,0.029070031915759978,-0.0369191164630813,0
1301,0.052040000000000086,5.000378781950543,0.030385191273714543,-0.0382310074418841,0
1302,0.052079999999999904,5.000378781950543,0.030056401434036775,-0.037898920198351824,0
1303,0.052119999999999944,5.000049991798719,0.03597461856751347,-0.04381381094782649,0
1304,0.052159999999999984,5.000049991798719,0.03334429983648583,-0.041180136897620415,0
1305,0.052200000000000024,4.999063621342738,0.03433066935967702,-0.04216312221184172,0
1306,0.052240000000000064,5.000049991798719,0.037947357621069405,-0.04577639742026964,0
1307,0.052280000000000104,4.99972120164681,0.03564582872569445,-0.04347142667414236,0
1308,0.05231999999999992,4.999392411494816,0.03433066935967702,-0.042152796706199175,0
1309,0.05235999999999996,5.000378781950543,0.03465945920099257,-0.04247808724143555,0
1310,0.0524,4.99972120164681,0.036303408409458296,-0.0441185084870922,0
1311,0.05244000000000004,5.000378781950543,0.04123525605372079,-0.0490467995596407,0
1312,0.05248000000000008,5.000049991798719,0.03893372714954513,-0.04674168552307044,0
1313,0.0525199999999999,4.99972120164681,0.04090646620989019,-0.04871081093896189,0
1314,0.05255999999999994,5.000049991798719,0.04090646620989019,-0.048707168831466,0
1315,0.05259999999999998,5.000378781950543,0.041564045897676996,-0.04936107799812445,0
1316,0.05264000000000002,4.999392411494816,0.039920096679152195,-0.04771342989463957,0
1317,0.05268000000000006,4.99972120164681,0.04255041543029908,-0.050340021447184344,0
1318,0.0527200000000001,5.000378781950543,0.03959130683582415,-0.04737715739104177,0
1319,0.05275999999999992,5.000707572102282,0.04090646620989019,-0.048688533091335834,0
1320,0.05279999999999996,5.000378781950543,0.040577676366185214,-0.0483559314130985,0
1321,0.05284,4.99972120164681,0.04090646620989019,-0.04868088131323531,0
1322,0.05288000000000004,5.000049991798719,0.03827614746376892,-0.0460466945666131,0
1323,0.05292000000000008,5.000049991798719,0.0392625169926218,-0.04702916809051157,0
1324,0.052959999999999896,4.99972120164681,0.04123525605372079,-0.048997983195056154,0
1325,0.052999999999999936,5.000378781950543,0.037618567778495635,-0.045377343064902174,0
1326,0.053039999999999976,5.000049991798719,0.037947357621069405,-0.04570215320776827,0
1327,0.053080000000000016,4.999392411494816,0.040577676366185214,-0.048328464462361,0
1328,0.053120000000000056,5.000378781950543,0.03827614746376892,-0.046022900332935476,0
1329,0.053160000000000096,4.99972120164681,0.03827614746376892,-0.04601883742413309,0
1330,0.053199999999999914,4.99972120164681,0.03268672015498804,-0.04042531957981132,0
1331,0.053239999999999954,5.000378781950543,0.03564582872569445,-0.04338031004365252,0
1332,0.053279999999999994,5.000707572102282,0.039920096679152195,-0.047650432374692304,0
1333,0.053320000000000034,5.000707572102282,0.04123525605372079,-0.04896141866741715,0
1334,0.053360000000000074,5.000378781950543,0.041564045897676996,-0.04928600802658399,0
1335,0.053400000000000114,5.000378781950543,0.04123525605372079,-0.04895299035172406,0
1336,0.05343999999999993,5.000049991798719,0.037947357621069405,-0.04566083679923477,0
1337,0.05347999999999997,4.99972120164681,0.03893372714954513,-0.04664292397646546,0
1338,0.05352000000000001,4.99972120164681,0.03893372714954513,-0.04663861445168515,0
1339,0.05356000000000005,5.000049991798719,0.03696098809372539,-0.0446615387557643,0
1340,0.05360000000000009,5.000378781950543,0.04024888652260587,-0.0479450734877778,0
1341,0.05363999999999991,4.99972120164681,0.03893372714954513,-0.04662552341997752,0
1342,0.05367999999999995,5.000049991798719,0.03959130683582415,-0.04727868547287399,0
1343,0.05371999999999999,4.99972120164681,0.03959130683582415,-0.04727424096041198,0
1344,0.05376000000000003,4.99972120164681,0.04024888652260587,-0.047927349315547665,0
1345,0.05380000000000007,4.999063621342738,0.033673089677423634,-0.04134705437976048,0
1346,0.05384000000000011,5.000378781950543,0.034988249042434,-0.0426576889557597,0
1347,0.05387999999999993,4.99972120164681,0.03465945920099257,-0.04232434768777909,0
1348,0.05391999999999997,4.99972120164681,0.037289777936047624,-0.04495008841996841,0
1349,0.05396000000000001,5.000707572102282,0.033015509995673945,-0.040671215961925127,0
1350,0.05400000000000005,4.99972120164681,0.03564582872569445,-0.043296903721313784,0
1351,0.05404000000000009,5.000378781950543,0.03334429983648583,-0.0409907174706695,0
1352,0.054079999999999906,4.99972120164681,0.031042770953448276,-0.03868450489786553,0
1353,0.054119999999999946,5.000378781950543,0.033673089677423634,-0.04131011366652933,0
1354,0.054159999999999986,4.99972120164681,0.03334429983648583,-0.040976587667830765,0
1355,0.054200000000000026,5.000378781950543,0.036303408409458296,-0.0439309339439974,0
1356,0.054240000000000066,5.000378781950543,0.03400187951848738,-0.041624616680885684,0
1357,0.054280000000000106,5.000378781950543,0.033673089677423634,-0.04129101245635998,0
1358,0.054319999999999924,5.000378781950543,0.031042770953448276,-0.03865585340191683,0
1359,0.054359999999999964,5.000049991798719,0.030056401434036775,-0.037664617669646426,0
1360,0.054400000000000004,4.99972120164681,0.02676850304419573,-0.03437182724946734,0
1361,0.054440000000000044,5.000378781950543,0.027426082721154613,-0.03502448914381614,0
1362,0.054480000000000084,5.000049991798719,0.02085028597429857,-0.02844374892757797,0
1363,0.0545199999999999,5.000378781950543,0.024138184341410046,-0.03172667820432602,0
1364,0.05455999999999994,5.000049991798719,0.027754872559823354,-0.03533837177747393,0
1365,0.05459999999999998,5.000049991798719,0.02315181482994949,-0.030730293913798456,0
1366,0.05464000000000002,5.000049991798719,0.0264397132059056,-0.03401314673406667,0
1367,0.05468000000000006,4.99972120164681,0.02315181482994949,-0.03072017744746834,0
1368,0.0547200000000001,5.000049991798719,0.023809394504130166,-0.03137266092326432,0
1369,0.05475999999999992,5.000378781950543,0.025124553854007567,-0.03268269885450419,0
1370,0.05479999999999996,5.000378781950543,0.028741242076586612,-0.03629424050595813,0
1371,0.05484,4.999392411494816,0.028412452237539368,-0.035960279011336846,0
1372,0.05488000000000004,5.001036362253937,0.027754872559823354,-0.03529750266190761,0
1373,0.05492000000000008,5.000378781950543,0.028412452237539368,-0.03594986072034982,0
1374,0.0549599999999999,4.999063621342738,0.028741242076586612,-0.036273404061408054,0
1375,0.05499999999999994,5.000378781950543,0.023809394504130166,-0.03133628518135725,0
1376,0.05503999999999998,4.99972120164681,0.022494235156274286,-0.03001582978567385,0
1377,0.05508000000000002,4.99972120164681,0.033015509995673945,-0.040531783906645205,0
1378,0.05512000000000006,4.99972120164681,0.028741242076586612,-0.03625217066841917,0
1379,0.0551600000000001,5.000049991798719,0.031042770953448276,-0.03854832969557796,0
1380,0.055199999999999916,5.001365152405508,0.031042770953448276,-0.03854293538571095,0
1381,0.055239999999999956,5.000049991798719,0.030385191273714543,-0.03787993700659757,0
1382,0.055279999999999996,4.999392411494816,0.029070031915759978,-0.036559334630651544,0
1383,0.055320000000000036,5.001036362253937,0.027426082721154613,-0.03490991817059088,0
1384,0.055360000000000076,5.000049991798719,0.030385191273714543,-0.03786353528162459,0
1385,0.055400000000000116,5.000049991798719,0.031042770953448276,-0.03851559941539681,0
1386,0.055439999999999934,5.001036362253937,0.036303408409458296,-0.04377069729288614,0
1387,0.055479999999999974,4.9967620902758165,0.037618567778495635,-0.045080293122957985,0
1388,0.055520000000000014,4.99972120164681,0.03597461856751347,-0.043430756484915914,0
1389,0.055560000000000054,5.001693942556992,0.04123525605372079,-0.048685782728553215,0
1390,0.055600000000000094,5.001036362253937,0.037947357621069405,-0.04539224931063763,0
1391,0.05563999999999991,5.002351522859708,0.04452315449893275,-0.05196238753358799,0
1392,0.05567999999999995,4.999392411494816,0.04978379203736312,-0.057217342820729315,0
1393,0.05571999999999999,5.000707572102282,0.05340048036363608,-0.06082832537283499,0
1394,0.05576000000000003,4.99972120164681,0.050112581884580176,-0.05753469767045427,0
1395,0.05580000000000007,4.99972120164681,0.05274290066682373,-0.06015926385415682,0
1396,0.05584000000000011,5.000049991798719,0.048139842803156765,-0.055550430090892465,0
1397,0.05587999999999993,4.99972120164681,0.04255041543029908,-0.04995520359175719,0
1398,0.05591999999999997,5.000049991798719,0.04846863264974746,-0.05586759853283802,0
1399,0.05596000000000001,4.999392411494816,0.04912621234330475,-0.056519332870740145,0
1400,0.05600000000000005,5.000378781950543,0.04123525605372079,-0.04862250822322565,0
1401,0.05604000000000009,5.000049991798719,0.04189283574175878,-0.049274196626277536,0
1402,0.05607999999999991,4.999392411494816,0.04024888652260587,-0.047624333270508114,0
1403,0.05611999999999995,5.000049991798719,0.03959130683582415,-0.04696081667110785,0
1404,0.05615999999999999,5.000049991798719,0.037289777936047624,-0.04465332815854009,0
1405,0.05620000000000003,5.000049991798719,0.03663219825152894,-0.043989766237085455,0
1406,0.05624000000000007,5.000049991798719,0.034988249042434,-0.042339812243134406,0
1407,0.05628000000000011,5.000049991798719,0.037947357621069405,-0.045292893565412426,0
