,seconds,Trig,EMG_amplitude,EMG_amplitude_filter,peaks
0,0.0,5.000378781950543,-0.09488372838901253,-0.06591601995658444,0
1,4.0000000000040004e-05,5.000049991798719,-0.09455493859824966,-0.06574609533929003,0
2,8.000000000008001e-05,5.000378781950543,-0.09455493859824966,-0.06590495814704185,0
3,0.00011999999999989797,5.000378781950543,-0.09455493859824966,-0.06606381776726754,0
4,0.00015999999999993797,5.000378781950543,-0.09554130797014417,-0.06720904274939633,0
5,0.00019999999999997797,5.000378781950543,-0.09258219985091413,-0.06440878540729399,0
6,0.00024000000000001798,5.000049991798719,-0.0971852569206733,-0.06917068759731496,0
7,0.000280000000000058,5.000378781950543,-0.09455493859824966,-0.0666992079138897,0
8,0.000320000000000098,5.000049991798719,-0.08995188151378213,-0.062254982162127104,0
9,0.00035999999999991594,5.000049991798719,-0.09192462026741856,-0.06438654411651852,0
10,0.00039999999999995595,5.000378781950543,-0.08962309172105022,-0.06224382981267786,0
11,0.00043999999999999595,5.000049991798719,-0.09126704068339796,-0.0640465832324338,0
12,0.00048000000000003595,5.000049991798719,-0.09159583047547391,-0.06453416686929754,0
13,0.000520000000000076,5.000378781950543,-0.09422614880735543,-0.06732326760524245,0
14,0.0005599999999998939,5.000049991798719,-0.09225341005923197,-0.0655092989917571,0
15,0.0005999999999999339,5.000049991798719,-0.08896551213519292,-0.06238015810363905,0
16,0.0006399999999999739,5.000707572102282,-0.09060946109885244,-0.06418285017462565,0
17,0.0006800000000000139,5.000378781950543,-0.09093825089119083,-0.06467036831524137,0
18,0.0007200000000000539,5.000707572102282,-0.09619888755075014,-0.0700897177329995,0
19,0.0007600000000000939,5.000378781950543,-0.09850041607873007,-0.07254994259750405,0
20,0.0007999999999999119,5.000378781950543,-0.10606258119668784,-0.08027078679815547,0
21,0.0008399999999999519,4.99972120164681,-0.10639137098284411,-0.08075823758046263,0
22,0.0008799999999999919,4.99972120164681,-0.10047315481186896,-0.07499866348583463,0
23,0.0009200000000000319,5.000049991798719,-0.10606258119668784,-0.08074671219339281,0
24,0.0009600000000000719,4.99972120164681,-0.1024458935402696,-0.07728862627176478,0
25,0.001000000000000112,5.000049991798719,-0.10113073438852911,-0.07613204743199307,0
26,0.0010399999999999299,4.99972120164681,-0.10047315481186896,-0.07563302590908311,0
27,0.0010799999999999699,5.000378781950543,-0.10310347311534969,-0.07842187917217944,0
28,0.0011200000000000099,5.000378781950543,-0.10080194460026483,-0.07627886168614695,0
29,0.0011600000000000499,5.000378781950543,-0.08962309172105022,-0.06525849506848636,0
30,0.0012000000000000899,5.000378781950543,-0.0840336652245519,-0.05982752922860807,0
31,0.0012399999999999078,5.000049991798719,-0.07943060808137585,-0.055382906299188246,0
32,0.0012799999999999478,5.000378781950543,-0.07482755091257769,-0.05093825606286442,0
33,0.0013199999999999878,5.000049991798719,-0.06858054471400928,-0.0448496286765883,0
34,0.0013600000000000279,4.99972120164681,-0.06003200983978245,-0.03645944365509569,0
35,0.0014000000000000679,5.000049991798719,-0.05575774236972354,-0.03234349623836724,0
36,0.0014400000000001079,5.000378781950543,-0.04951073602790314,-0.026254779310164345,0
37,0.0014799999999999258,5.000049991798719,-0.04030462133375036,-0.017206922549149573,0
38,0.0015199999999999658,5.000378781950543,-0.03372882506167206,-0.010789351888512176,0
39,0.0015600000000000058,4.99972120164681,-0.022549971280973066,0.00023130944410561238,0
40,0.0016000000000000458,4.99972120164681,-0.017618123977595282,0.005004998304863242,0
41,0.0016400000000000858,5.000049991798719,-0.013672646114138112,0.008792352573695303,0
42,0.0016799999999999038,5.000378781950543,-0.006768059808773,0.015538850975390775,0
43,0.0017199999999999438,4.99972120164681,0.0021092655236763236,0.024258124938506515,0
44,0.0017599999999999838,5.000378781950543,0.009013851957515154,0.031004697381142407,0
45,0.0018000000000000238,5.000378781950543,0.01756238761983417,0.039395257274591367,0
46,0.0018400000000000638,5.000378781950543,0.025453343691792682,0.04712827664461651,0
47,0.0018800000000001038,4.99972120164681,0.0323579303144281,0.05387496647725412,0
48,0.0019199999999999218,5.000049991798719,0.03696098809372539,0.058320168223876895,0
49,0.0019599999999999618,5.000049991798719,0.041564045897676996,0.06276541159824767,0
50,0.0020000000000000018,5.000049991798719,0.045180734189481195,0.06622432790971133,0
51,0.0020400000000000418,5.000049991798719,0.04978379203736312,0.0706696570730097,0
52,0.002080000000000082,5.000049991798719,0.05537321945707481,0.07610139995077542,0
53,0.0021199999999998997,5.000707572102282,0.05603079915588792,0.07660134009751804,0
54,0.0021599999999999397,4.999392411494816,0.05471563975876172,0.07512858698578598,0
55,0.0021999999999999797,5.000378781950543,0.05142774127470057,0.07168314147251727,0
56,0.0022400000000000198,5.000049991798719,0.04682468341804723,0.06692258412032655,0
57,0.0022800000000000598,5.000378781950543,0.04090646620989019,0.060846915798906165,0
58,0.0023200000000000998,5.000378781950543,0.034988249042434,0.05477129674939005,0
59,0.0023599999999999177,4.999392411494816,0.031700350633686175,0.05132604653903426,0
60,0.0023999999999999577,4.99972120164681,0.02216544531962629,0.04163384035337957,0
61,0.0024399999999999977,5.000049991798719,0.016576018115963126,0.03588716405800199,0
62,0.0024800000000000377,4.99972120164681,0.010000221452637598,0.02915417093300933,0
63,0.0025200000000000777,5.000378781950543,0.0021092655236763236,0.021106072022888375,0
64,0.0025599999999998957,5.000049991798719,-0.006439269983302923,0.012400447866003923,0
65,0.0025999999999999357,5.000049991798719,-0.0113711173519455,0.00731156702973805,0
66,0.0026399999999999757,5.000049991798719,-0.0113711173519455,0.007154589595698188,0
67,0.0026800000000000157,5.000378781950543,-0.01564538504817102,0.0027234013505853666,0
68,0.0027200000000000557,5.000378781950543,-0.024851500012672237,-0.006639576425820248,0
69,0.0027600000000000957,4.99972120164681,-0.027481818555480722,-0.009426699191465313,0
70,0.0027999999999999137,5.000049991798719,-0.03340003524671499,-0.015501660664135223,0
71,0.0028399999999999537,5.000378781950543,-0.03931825189622702,-0.021576561801107133,0
72,0.0028799999999999937,5.000378781950543,-0.04096220095812057,-0.023377134203674824,0
73,0.0029200000000000337,4.99972120164681,-0.044907678693494255,-0.027479173279898267,0
74,0.0029600000000000737,5.000049991798719,-0.04194857039370768,-0.024676563467876295,0
75,0.0029999999999998916,4.99972120164681,-0.04720920736386795,-0.030093635219239606,0
76,0.0030399999999999316,5.000049991798719,-0.05115468506975916,-0.03419548314608684,0
77,0.0030799999999999716,5.000049991798719,-0.06200474866471477,-0.04520185154786351,0
78,0.0031200000000000117,5.000049991798719,-0.06956691411691203,-0.05292025553866305,0
79,0.0031600000000000517,4.99972120164681,-0.0715396529191989,-0.05504916575706021,0
80,0.0032000000000000917,4.99972120164681,-0.07877302848740105,-0.06243864476442475,0
81,0.0032399999999999096,4.99972120164681,-0.08271850604340404,-0.06654015692801034,0
82,0.0032799999999999496,5.000378781950543,-0.08797914275542355,-0.07195675856123122,0
83,0.0033199999999999896,5.000049991798719,-0.0971852569206733,-0.08131876710633704,0
84,0.0033600000000000296,5.000049991798719,-0.10113073438852911,-0.08542006755758358,0
85,0.0034000000000000696,5.000378781950543,-0.1103368484064295,-0.09478193230714005,0
86,0.0034400000000001096,5.000707572102282,-0.11592627472395621,-0.10052703624917633,0
87,0.0034799999999999276,4.99972120164681,-0.12020054188215752,-0.10495690706919296,0
88,0.0035199999999999676,5.000049991798719,-0.11724143385193893,-0.10215332788241857,0
89,0.0035600000000000076,5.000378781950543,-0.11099442797517921,-0.0960617751749326,0
90,0.0036000000000000476,5.000707572102282,-0.10178831396466272,-0.08701103780360445,0
91,0.0036400000000000876,4.999392411494816,-0.09850041607873007,-0.08387843917075075,0
92,0.0036799999999999056,4.999063621342738,-0.09126704068339796,-0.07680028478626212,0
93,0.0037199999999999456,4.999063621342738,-0.07975939787816717,-0.06544778389341765,0
94,0.0037599999999999856,4.99972120164681,-0.08107455706402487,-0.06691800503689377,0
95,0.0038000000000000256,4.998734831190575,-0.06364869768191721,-0.04964712680124358,0
96,0.0038400000000000656,4.999063621342738,-0.04720920736386795,-0.033362535962022176,0
97,0.0038800000000001056,5.003666683464122,-0.030112137090063842,-0.016420282642878845,0
98,0.0039199999999999235,4.99972120164681,-0.014001435936796827,-0.0004643150635059781,0
99,0.0039599999999999635,5.001036362253937,-0.00348016154833046,0.009902309988487713,0
100,0.0040000000000000036,4.999392411494816,0.007369902801517392,0.020597810095987643,0
101,0.0040400000000000436,5.002351522859708,0.024795764016348754,0.037869193019340844,0
102,0.0040800000000000836,5.000707572102282,0.037618567778495635,0.050537605297659244,0
103,0.0041199999999999015,4.998077250885994,0.05570200930641887,0.06846674300621163,0
104,0.0041599999999999415,5.001036362253937,0.06688086425839593,0.07949138266010461,0
105,0.0041999999999999815,4.9967620902758165,0.08496430639699507,0.0974206988787501,0
106,0.0042400000000000215,5.001693942556992,0.08529309625753255,0.09759545305431552,0
107,0.0042800000000000615,5.000378781950543,0.09482800226688862,0.106976414470533,0
108,0.0043200000000001015,5.000049991798719,0.09811590091487153,0.11011046047405673,0
109,0.0043599999999999195,5.000378781950543,0.09877348064594688,0.11061428036618567,0
110,0.0043999999999999595,5.000378781950543,0.10699322732592072,0.11868036086953992,0
111,0.0044399999999999995,5.000378781950543,0.10666443745724652,0.11819799934336087,0
112,0.0044800000000000395,4.999392411494816,0.10436290837996715,0.11574299398444626,0
113,0.0045200000000000795,5.000378781950543,0.10403411851227598,0.11526082406770446,0
114,0.0045599999999998975,4.999392411494816,0.10370532864470776,0.11477875124033829,0
115,0.0045999999999999375,4.99972120164681,0.10239016917566456,0.11331040675736409,0
116,0.0046399999999999775,5.000378781950543,0.10008864010957542,0.11085579147976501,0
117,0.0046800000000000175,4.999392411494816,0.10304774890994019,0.11366191372752746,0
118,0.0047200000000000575,4.99972120164681,0.11028112601941528,0.12074240479971984,0
119,0.0047600000000000975,5.000049991798719,0.11291144498304434,0.12321993909771639,0
120,0.0047999999999999154,4.99972120164681,0.1181720829338278,0.1283278946107594,0
121,0.0048399999999999554,5.000049991798719,0.1257342500429348,0.1357374823661646,0
122,0.0048799999999999955,5.000707572102282,0.13658431600783633,0.14643507291744742,0
123,0.0049200000000000355,4.99972120164681,0.14283132374468102,0.15252971003669208,0
124,0.0049600000000000755,5.000049991798719,0.14710559222144168,0.15665171354769056,0
125,0.004999999999999893,5.000049991798719,0.1553253393496381,0.1647193022176588,0
126,0.005039999999999933,5.000049991798719,0.15894202810996905,0.1681839398828617,0
127,0.005079999999999973,4.99972120164681,0.1563117090100981,0.16540167790639174,0
128,0.005120000000000013,4.99972120164681,0.15368138991795355,0.16261952501146162,0
129,0.005160000000000053,5.000049991798719,0.14644801245445316,0.15523442367412235,0
130,0.0052000000000000934,4.99972120164681,0.12902214880616825,0.13765694693592034,0
131,0.005239999999999911,5.000049991798719,0.10995233614951355,0.11843563282807983,0
132,0.005279999999999951,5.000707572102282,0.09417042253877159,0.10250233025952007,0
133,0.005319999999999991,5.000378781950543,0.07115513236633955,0.07933576447709549,0
134,0.005360000000000031,5.000378781950543,0.05340048036363608,0.06142995106649534,0
135,0.005400000000000071,4.99972120164681,0.030056401434036775,0.037934825785172405,0
136,0.005440000000000111,5.000049991798719,0.006712323140007484,0.014439817049469186,0
137,0.005479999999999929,5.000049991798719,-0.011042327528263687,-0.003465647296757005,0
138,0.005519999999999969,4.99972120164681,-0.024851500012672237,-0.017425515841946907,0
139,0.005560000000000009,5.000049991798719,-0.03668793339048888,-0.029412526810137972,0
140,0.005600000000000049,5.000378781950543,-0.04161978058197445,-0.03449483226858623,0
141,0.005640000000000089,5.000049991798719,-0.048853156410254436,-0.04187854618764793,0
142,0.005679999999999907,4.99972120164681,-0.05214105449331856,-0.04531666133278606,0
143,0.005719999999999947,5.000378781950543,-0.058716850620562686,-0.052042552641119344,0
144,0.005759999999999987,4.99972120164681,-0.06364869768191721,-0.057124372150557726,0
145,0.005800000000000027,4.999392411494816,-0.0626623282719858,-0.0562878516039481,0
146,0.005840000000000067,4.99972120164681,-0.06101837925283336,-0.054793627011869336,0
147,0.005880000000000107,4.99972120164681,-0.057401691399265334,-0.05132653829791867,0
148,0.005919999999999925,5.000378781950543,-0.050168315645034,-0.044242635544925135,0
149,0.005959999999999965,5.000049991798719,-0.045565258314247556,-0.03978892422636555,0
150,0.006000000000000005,5.000378781950543,-0.04622283793448369,-0.04059572201948518,0
151,0.006040000000000045,5.000378781950543,-0.0383318824575425,-0.03285385602605778,0
152,0.006080000000000085,5.000049991798719,-0.035043984320212454,-0.02971491783315857,0
153,0.006119999999999903,4.99972120164681,-0.03044092690630805,-0.025260689975209003,0
154,0.006159999999999943,5.000049991798719,-0.021892391642189743,-0.01686085302950374,0
155,0.006199999999999983,5.000049991798719,-0.012686276645394332,-0.00780330426484811,0
156,0.006240000000000023,4.99972120164681,-0.00348016154833046,0.0012543775347393185,0
157,0.006280000000000063,5.000049991798719,0.0014516858662357995,0.006037925434534044,0
158,0.006320000000000103,5.000049991798719,0.007369902801517392,0.011807977485434919,0
159,0.006359999999999921,5.000049991798719,0.015260858779241576,0.019550904056492322,0
160,0.006399999999999961,4.99972120164681,0.015589648613231935,0.019731800808483038,0
161,0.006440000000000001,5.001036362253937,0.025124553854007567,0.02911895013850229,0
162,0.006480000000000041,5.000049991798719,0.0313715607935042,0.035218339184677754,0
163,0.006520000000000081,4.99972120164681,0.033015509995673945,0.03671480935676215,0
164,0.006559999999999899,5.000049991798719,0.03465945920099257,0.03821141924063346,0
165,0.006599999999999939,4.99972120164681,0.03827614746376892,0.04168090873559726,0
166,0.006639999999999979,5.000049991798719,0.03433066935967702,0.03758837326191167,0
167,0.006680000000000019,4.99972120164681,0.029398821755059465,0.03250961053008364,0
168,0.006720000000000059,4.999063621342738,0.027097292882612076,0.030061309616546354,0
169,0.006760000000000099,5.000378781950543,0.025453343691792682,0.02827073231406098,0
170,0.006799999999999917,4.99972120164681,0.023809394504130166,0.026480299787018474,0
171,0.006839999999999957,4.99972120164681,0.018548757124844717,0.02107332468305276,0
172,0.006879999999999997,5.000049991798719,0.01328811977796078,0.015666496068146442,0
173,0.006920000000000037,5.000049991798719,0.008027482463535476,0.010259814783852078,0
174,0.006960000000000077,4.99972120164681,0.0014516858662357995,0.0035381223558622176,0
175,0.006999999999999895,4.99972120164681,-0.004466531027802631,-0.0025258413891390535,0
176,0.007039999999999935,4.99972120164681,-0.009727168232258263,-0.007932075624765972,0
177,0.007079999999999975,4.99972120164681,-0.00874079875891258,-0.007091152523227243,0
178,0.007120000000000015,4.99972120164681,-0.012357486822223915,-0.010853135459907057,0
179,0.007160000000000055,4.99972120164681,-0.010055958056451306,-0.008696749230496143,0
180,0.007200000000000095,4.99972120164681,-0.0166317545134594,-0.015417535048803874,0
181,0.007239999999999913,4.99972120164681,-0.01564538504817102,-0.014576000932218103,0
182,0.007279999999999953,5.000378781950543,-0.018933283261316228,-0.018008579644461353,0
183,0.007319999999999993,5.000049991798719,-0.020577232363083744,-0.01979705355924956,0
184,0.007360000000000033,5.000378781950543,-0.01926207308192608,-0.01862626256910428,0
185,0.007400000000000073,5.000049991798719,-0.0228787611001723,-0.022387161520972733,0
186,0.007440000000000113,4.99972120164681,-0.0228787611001723,-0.022531214262379202,0
187,0.007479999999999931,4.999392411494816,-0.025180289830972882,-0.024976636708108242,0
188,0.007519999999999971,4.99972120164681,-0.030112137090063842,-0.030052217821957987,0
189,0.007560000000000011,5.000049991798719,-0.03274245561641449,-0.03282610950978379,0
190,0.007600000000000051,4.99972120164681,-0.035043984320212454,-0.03527104984924433,0
191,0.007640000000000091,5.000049991798719,-0.03340003524671499,-0.03377035005366018,0
192,0.007679999999999909,4.99972120164681,-0.03438640469119987,-0.034899805586971845,0
193,0.007719999999999949,5.000049991798719,-0.03635914357669136,-0.037015466541473044,0
194,0.007759999999999989,5.000378781950543,-0.03603035376276496,-0.036829433946622574,0
195,0.007800000000000029,5.000049991798719,-0.04129099077011207,-0.042232662493616145,0
196,0.00784000000000007,4.999392411494816,-0.04260615001678679,-0.043690246771640434,0
197,0.00788000000000011,5.000049991798719,-0.04326372963934923,-0.04449008408902361,0
198,0.007919999999999927,4.99972120164681,-0.04720920736386795,-0.048577651344244854,0
199,0.007959999999999967,5.000378781950543,-0.04030462133375036,-0.04181498585377204,0
200,0.008000000000000007,4.99972120164681,-0.04326372963934923,-0.044915844881675514,0
201,0.008040000000000047,5.000049991798719,-0.04622283793448369,-0.0480165332561564,0
202,0.008080000000000087,5.000049991798719,-0.04523646850393555,-0.04717157243705014,0
203,0.008119999999999905,5.000049991798719,-0.0445788888829237,-0.046655229135308195,0
204,0.008159999999999945,5.000049991798719,-0.04129099077011207,-0.0435083942260133,0
205,0.008199999999999985,5.000049991798719,-0.04194857039370768,-0.04430686311448493,0
206,0.008240000000000025,4.999392411494816,-0.04030462133375036,-0.042803628558576064,0
207,0.008280000000000065,4.999392411494816,-0.03340003524671499,-0.036039581393282824,0
208,0.008320000000000105,5.000049991798719,-0.030769716722423582,-0.03354962538766352,0
209,0.008359999999999923,4.999392411494816,-0.03340003524671499,-0.03632012920751564,0
210,0.008399999999999963,4.99972120164681,-0.03471519450577058,-0.037775295719708876,0
211,0.008440000000000003,4.99972120164681,-0.033071245431629134,-0.03627117503770722,0
212,0.008480000000000043,5.000378781950543,-0.03241366580107112,-0.03575324412046056,0
213,0.008520000000000083,5.000049991798719,-0.028796977823800904,-0.03227602436059419,0
214,0.008559999999999901,5.000378781950543,-0.024851500012672237,-0.028469833454641512,0
215,0.008599999999999941,5.000049991798719,-0.024193920375685754,-0.02795135859504877,0
216,0.008639999999999981,5.000378781950543,-0.025180289830972882,-0.02907664988516615,0
217,0.008680000000000021,5.000378781950543,-0.030112137090063842,-0.03414723522252299,0
218,0.008720000000000061,5.000049991798719,-0.030769716722423582,-0.03494336836337097,0
219,0.008760000000000101,5.000049991798719,-0.03241366580107112,-0.03672568556831057,0
220,0.008799999999999919,5.000378781950543,-0.037016723204157484,-0.04146692490387635,0
221,0.008839999999999959,5.000378781950543,-0.029125767640559533,-0.033713964268137886,0
222,0.008879999999999999,4.99972120164681,-0.03142729635426868,-0.036153300095095695,0
223,0.008920000000000039,5.000049991798719,-0.03142729635426868,-0.036290918584566276,0
224,0.008960000000000079,5.000378781950543,-0.030112137090063842,-0.03511318837771763,0
225,0.008999999999999897,5.000378781950543,-0.028139398189897927,-0.03327768829529531,0
226,0.009039999999999937,4.99972120164681,-0.029125767640559533,-0.03440110551743506,0
227,0.009079999999999977,4.99972120164681,-0.02781060837275358,-0.03322280216904154,0
228,0.009120000000000017,5.000049991798719,-0.02320755091924319,-0.028756407977937354,0
229,0.009160000000000057,5.000049991798719,-0.018275703619711994,-0.023961030479732658,0
230,0.009200000000000097,4.999392411494816,-0.014659015581730453,-0.020480617978798608,0
231,0.009239999999999915,4.999063621342738,-0.013343856291351444,-0.019301539158870125,0
232,0.009279999999999955,5.000378781950543,-0.010055958056451306,-0.016149525526394173,0
233,0.009319999999999995,5.000378781950543,-0.01860449344057817,-0.024833748844385304,0
234,0.009360000000000035,5.000049991798719,-0.01301506646843685,-0.01937981233791781,0
235,0.009400000000000075,4.99972120164681,-0.008412008934208556,-0.01491204700245256,0
236,0.009439999999999893,5.000378781950543,-0.00348016154833046,-0.010115292750623789,0
237,0.009479999999999933,4.99972120164681,-0.008412008934208556,-0.015182033408959128,0
238,0.009519999999999973,4.99972120164681,-0.010713537704454032,-0.01761825479412321,0
239,0.009560000000000013,4.99972120164681,-0.00874079875891258,-0.015780007010954136,0
240,0.009600000000000053,5.000049991798719,-0.010713537704454032,-0.01788703487226027,0
241,0.009640000000000093,5.000378781950543,-0.01301506646843685,-0.020322649512291957,0
242,0.009679999999999911,5.000378781950543,-0.012686276645394332,-0.020127741733434838,0
243,0.009719999999999951,5.000378781950543,-0.007096849634115457,-0.014671992143297893,0
244,0.009759999999999991,5.000378781950543,-0.007754429284417372,-0.0154630438014931,0
245,0.009800000000000031,4.99972120164681,-0.009727168232258263,-0.01756904855475551,0
246,0.009840000000000071,5.000049991798719,-0.006439269983302923,-0.014414209120516056,0
247,0.009880000000000111,4.99972120164681,-0.006439269983302923,-0.01454706015728887,0
248,0.009919999999999929,4.99972120164681,-0.006110480157705198,-0.014350912804287057,0
249,0.009959999999999969,4.99972120164681,-0.00808321910937683,-0.016456084879154658,0
250,0.010000000000000009,4.99972120164681,-0.002165002240582567,-0.01067009099995134,0
251,0.010040000000000049,5.000049991798719,0.0007941062093044515,-0.007842994622870265,0
252,0.010080000000000089,5.000049991798719,0.003753214669504526,-0.005015686536543471,0
253,0.010119999999999907,5.000378781950543,0.005397163818512657,-0.003503325281367823,0
254,0.010159999999999947,4.999392411494816,-0.0008498429307955274,-0.009881706664406242,0
255,0.010199999999999987,4.999392411494816,-0.0018362124133269458,-0.010999236741558071,0
256,0.010240000000000027,4.99972120164681,-0.003808951374948702,-0.013102921480743837,0
257,0.010280000000000067,4.99972120164681,-0.006439269983302923,-0.015863970272727245,0
258,0.010320000000000107,5.000049991798719,-0.00939837840793746,-0.018953592511253014,0
259,0.010359999999999925,5.000049991798719,-0.014330225759327644,-0.024015736532075786,0
260,0.010399999999999965,5.000049991798719,-0.017618123977595282,-0.027433713501686295,0
261,0.010440000000000005,4.999392411494816,-0.020577232363083744,-0.030522681947893593,0
262,0.010480000000000045,5.000378781950543,-0.02320755091924319,-0.03328264110271734,0
263,0.010520000000000085,5.000049991798719,-0.03142729635426868,-0.04163180690403303,0
264,0.010559999999999903,5.000049991798719,-0.0340576148765004,-0.04439132479097923,0
265,0.010599999999999943,5.000378781950543,-0.030769716722423582,-0.041232404231964684,0
266,0.010639999999999983,5.000049991798719,-0.03372882506167206,-0.04432026762967891,0
267,0.010680000000000023,4.99972120164681,-0.030769716722423582,-0.04148969104649465,0
268,0.010720000000000063,4.99972120164681,-0.027481818555480722,-0.038330100568555917,0
269,0.010760000000000103,5.000378781950543,-0.027481818555480722,-0.038458183426994905,0
270,0.01079999999999992,5.000049991798719,-0.030769716722423582,-0.0418739388594672,0
271,0.01083999999999996,5.000049991798719,-0.029783347273691016,-0.041015200322177765,0
272,0.01088,5.000049991798719,-0.020577232363083744,-0.03193648920892532,0
273,0.01092000000000004,5.000707572102282,-0.018933283261316228,-0.03041971603160415,0
274,0.01096000000000008,5.000378781950543,-0.019590862902407788,-0.03120424296660243,0
275,0.010999999999999899,5.000049991798719,-0.01696054433496612,-0.02870064230609276,0
276,0.011039999999999939,5.000049991798719,-0.015316595226152155,-0.027183180962004172,0
277,0.011079999999999979,5.000049991798719,-0.01597417487006185,-0.027967017474410993,0
278,0.011120000000000019,5.000049991798719,-0.012357486822223915,-0.024476354646037746,0
279,0.011160000000000059,5.000378781950543,-0.008412008934208556,-0.020656669576874807,0
280,0.011200000000000099,4.99972120164681,-0.005452900506126915,-0.017823120816684978,0
281,0.011239999999999917,5.000049991798719,-0.006768059808773,-0.019263605887152424,0
282,0.011279999999999957,5.000049991798719,-0.006110480157705198,-0.01873111735597132,0
283,0.011319999999999997,4.99972120164681,-0.008412008934208556,-0.021157501857815154,0
284,0.011360000000000037,5.000378781950543,-0.006768059808773,-0.019638172317821997,0
285,0.011400000000000077,5.000049991798719,-0.008412008934208556,-0.02140650414471676,0
286,0.011439999999999895,4.99972120164681,-0.005781690331979852,-0.018900330617152773,0
287,0.011479999999999935,4.999392411494816,-0.003808951374948702,-0.01705149836646131,0
288,0.011519999999999975,5.000049991798719,-0.0018362124133269458,-0.015202427002611471,0
289,0.011560000000000015,4.999392411494816,-0.0024937920677107622,-0.015983434407251484,0
290,0.011600000000000055,4.99972120164681,-0.0028225818947114484,-0.016435411399346483,0
291,0.011640000000000095,5.000378781950543,-0.004466531027802631,-0.01820230637603276,0
292,0.011679999999999913,5.000049991798719,-0.004466531027802631,-0.0183250101631071,0
293,0.011719999999999953,4.99972120164681,-0.006110480157705198,-0.020091420289864485,0
294,0.011759999999999993,5.000378781950543,-0.003808951374948702,-0.017912108981374273,0
295,0.011800000000000033,5.000049991798719,-0.005124110680146385,-0.019349241507217434,0
296,0.011840000000000073,4.999392411494816,-0.0018362124133269458,-0.016183071477734134,0
297,0.011880000000000113,4.99972120164681,-0.004137741201439435,-0.01860608279153553,0
298,0.01191999999999993,4.998734831190575,-0.005781690331979852,-0.02037126800913737,0
299,0.01195999999999997,5.000049991798719,-0.005452900506126915,-0.02016346710610271,0
300,0.01200000000000001,5.000049991798719,-0.003808951374948702,-0.018640259009255547,0
301,0.01204000000000005,4.999063621342738,-0.006110480157705198,-0.021062280214990278,0
302,0.01208000000000009,4.998406041038327,0.0021092655236763236,-0.012962777623754071,0
303,0.012119999999999909,5.000707572102282,-0.0008498429307955274,-0.016041879115450592,0
304,0.012159999999999949,4.998406041038327,0.0014516858662357995,-0.013860092584034884,0
305,0.012199999999999989,5.001036362253937,-0.0024937920677107622,-0.017925061294705794,0
306,0.012240000000000029,4.998406041038327,-0.00019226327513760522,-0.015742771074096624,0
307,0.012280000000000069,4.999392411494816,-0.004466531027802631,-0.02013602447951617,0
308,0.012320000000000109,5.001365152405508,-0.002165002240582567,-0.017953227712818993,0
309,0.012359999999999927,5.000049991798719,-0.001178632758433426,-0.017085335907372767,0
310,0.012399999999999967,4.998734831190575,0.004739584158527918,-0.011285341613146739,0
311,0.012440000000000007,4.999063621342738,0.005397163818512657,-0.010745728813229714,0
312,0.012480000000000047,5.000378781950543,0.008685062126061585,-0.007575540895835401,0
313,0.012520000000000087,5.000049991798719,0.004739584158527918,-0.011638472077826402,0
314,0.012559999999999905,4.99972120164681,0.005397163818512657,-0.011098087752285709,0
315,0.012599999999999945,5.000049991798719,0.003753214669504526,-0.012858973652883625,0
316,0.012639999999999985,5.001036362253937,0.008027482463535476,-0.008701383326229148,0
317,0.012680000000000025,4.99972120164681,0.010986590948902406,-0.005858692324155085,0
318,0.012720000000000065,5.000049991798719,0.009013851957515154,-0.007947588116376915,0
319,0.012760000000000105,5.000049991798719,0.011972960446309217,-0.005104375049086908,0
320,0.012799999999999923,4.99972120164681,0.011644170613713423,-0.005548798228493237,0
321,0.012839999999999963,4.999392411494816,0.011972960446309217,-0.005335378974167549,0
322,0.012880000000000003,5.000049991798719,0.009342641789095676,-0.00808080474878671,0
323,0.012920000000000043,5.000707572102282,0.009671431620803153,-0.007866857882825967,0
324,0.012960000000000083,5.000049991798719,0.01328811977796078,-0.004364747850498233,0
325,0.0129999999999999,4.99972120164681,0.0076986926324629085,-0.01006848759219444,0
326,0.01303999999999994,4.99972120164681,0.01295932994485767,-0.00492189666120179,0
327,0.01307999999999998,5.000049991798719,0.013945699444547363,-0.00404930664351013,0
328,0.01312000000000002,5.000049991798719,0.01295932994485767,-0.005149188042749529,0
329,0.01316000000000006,5.000378781950543,0.01295932994485767,-0.00526243167837703,0
330,0.0132000000000001,5.000049991798719,0.01065780111668721,-0.007676935198356018,0
331,0.013239999999999919,5.000049991798719,0.012301750279031881,-0.006145691105687976,0
332,0.013279999999999959,5.000378781950543,0.013945699444547363,-0.004614176710994884,0
333,0.013319999999999999,4.99972120164681,0.01328811977796078,-0.0053839201744245915,0
334,0.013360000000000039,5.000378781950543,0.01328811977796078,-0.005495812323767469,0
335,0.013400000000000079,5.000049991798719,0.01328811977796078,-0.005607432153699873,0
336,0.013439999999999896,5.000049991798719,0.015918438447348998,-0.003088460324540831,0
337,0.013479999999999936,4.99972120164681,0.014603279111640999,-0.004514692842106151,0
338,0.013519999999999976,5.000049991798719,0.016576018115963126,-0.002652752694231736,0
339,0.013560000000000016,4.99972120164681,0.019206336795484613,-0.00013295788034810296,0
340,0.013600000000000056,5.000378781950543,0.019206336795484613,-0.00024320609142002882,0
341,0.013640000000000096,4.99972120164681,0.01328811977796078,-0.006271395003344617,0
342,0.013679999999999914,5.000049991798719,0.015918438447348998,-0.0037507712512382402,0
343,0.013719999999999954,5.000049991798719,0.015589648613231935,-0.004188978366734562,0
344,0.013759999999999994,5.000378781950543,0.015589648613231935,-0.004298117355098333,0
345,0.013800000000000034,5.000378781950543,0.016247228281592724,-0.003749397726650283,0
346,0.013840000000000074,4.99972120164681,0.019863916466630674,-0.0002412899793224621,0
347,0.013879999999999892,5.000049991798719,0.021836655483104705,0.001623148853705048,0
348,0.013919999999999932,5.000378781950543,0.018877546960101396,-0.0014439789481173679,0
349,0.013959999999999972,5.000049991798719,0.019206336795484613,-0.0012229268382657997,0
350,0.014000000000000012,5.000049991798719,0.019863916466630674,-0.0006728026924142181,0
351,0.014040000000000052,5.000049991798719,0.01821996728971463,-0.002423924549154811,0
352,0.014080000000000092,5.000049991798719,0.01756238761983417,-0.0031883934098806323,0
353,0.01411999999999991,5.000378781950543,0.01789117745471111,-0.0029662086350906672,0
354,0.01415999999999995,4.99972120164681,0.020521496138282788,-0.00044221024080494734,0
355,0.01419999999999999,4.99972120164681,0.022494235156274286,0.0014244938970011198,0
356,0.01424000000000003,4.99972120164681,0.021507865646709548,0.00033237555290131955,0
357,0.01428000000000007,5.000049991798719,0.018548757124844717,-0.0027321951230545455,0
358,0.01432000000000011,5.000378781950543,0.015589648613231935,-0.005796478475283397,0
359,0.014359999999999928,5.000378781950543,0.017233597785083862,-0.004257416199310816,0
360,0.014399999999999968,5.000049991798719,0.013945699444547363,-0.007649912861503839,0
361,0.014440000000000008,5.000378781950543,0.022823024993048696,0.0011231035672677608,0
362,0.014480000000000048,5.000378781950543,0.01756238761983417,-0.004241553097834343,0
363,0.014520000000000088,5.000378781950543,0.021836655483104705,-7.101407448895265e-05,0
364,0.014559999999999906,5.000378781950543,0.020521496138282788,-0.001489611184954798,0
365,0.014599999999999946,4.99972120164681,0.01789117745471111,-0.00422307593937837,0
366,0.014639999999999986,4.999392411494816,0.019206336795484613,-0.0030107703559682855,0
367,0.014680000000000026,5.000378781950543,0.016247228281592724,-0.006072439696859498,0
368,0.014720000000000066,5.000049991798719,0.02085028597429857,-0.001571649285740516,0
369,0.014760000000000106,5.000049991798719,0.022823024993048696,0.0002991166100499293,0
370,0.014799999999999924,4.99972120164681,0.026110923367741706,0.003485336631785123,0
371,0.014839999999999964,4.999392411494816,0.023809394504130166,0.001082424794745948,0
372,0.014880000000000004,5.000378781950543,0.021507865646709548,-0.0013201910488965848,0
373,0.014920000000000044,5.000049991798719,0.02315181482994949,0.00022296774114361796,0
374,0.014960000000000084,5.000049991798719,0.02019270630239349,-0.002836633982638982,0
375,0.014999999999999902,5.000378781950543,0.01953512663099438,-0.0035944090512123952,0
376,0.015039999999999942,5.000707572102282,0.027097292882612076,0.003867860202484275,0
377,0.015079999999999982,4.99972120164681,0.025782133529704057,0.0024531028492250605,0
378,0.015120000000000022,5.000049991798719,0.025782133529704057,0.0023538044428694452,0
379,0.015160000000000062,5.000049991798719,0.0264397132059056,0.0029123859012396783,0
380,0.015200000000000102,4.99972120164681,0.027426082721154613,0.003800057979807054,0
381,0.01523999999999992,4.99972120164681,0.023480604666976643,-0.00024381613918707593,0
382,0.01527999999999996,5.000049991798719,0.024138184341410046,0.0003156694310956047,0
383,0.01532,4.999392411494816,0.028412452237539368,0.004492145770617536,0
384,0.01536000000000004,5.000049991798719,0.020521496138282788,-0.0034962987527534604,0
385,0.01540000000000008,5.000378781950543,0.022823024993048696,-0.0012919546065938634,0
386,0.015439999999999898,5.000378781950543,0.016247228281592724,-0.007964631730073547,0
387,0.015479999999999938,4.99972120164681,0.014274489278030808,-0.010033946269948999,0
388,0.015519999999999978,5.000049991798719,0.012630540111881347,-0.011774165519527362,0
389,0.015560000000000018,4.99972120164681,0.011315380781244458,-0.013185288905493284,0
390,0.015600000000000058,4.99972120164681,0.01032901128459894,-0.014267315856118193,0
391,0.0156400000000001,5.000049991798719,0.011972960446309217,-0.012718716975759495,0
392,0.015679999999999916,5.000049991798719,0.012630540111881347,-0.012156179849610708,0
393,0.015719999999999956,5.000378781950543,0.009013851957515154,-0.015867602234155474,0
394,0.015759999999999996,4.99972120164681,0.01065780111668721,-0.014318078430590648,0
395,0.015800000000000036,4.99972120164681,0.011972960446309217,-0.013097035018673948,0
396,0.015840000000000076,5.000378781950543,0.008685062126061585,-0.01647873925739647,0
397,0.015879999999999894,5.000049991798719,0.011315380781244458,-0.013941915962137806,0
398,0.015919999999999934,4.99972120164681,0.014932068945377922,-0.010418412042071872,0
399,0.015959999999999974,5.000049991798719,0.011972960446309217,-0.013470393114065768,0
400,0.016000000000000014,4.999392411494816,0.01328811977796078,-0.012247794130937746,0
401,0.016040000000000054,4.999392411494816,0.011644170613713423,-0.013983990868080085,0
402,0.016080000000000094,5.000049991798719,0.014932068945377922,-0.010788026784493414,0
403,0.016119999999999912,5.000378781950543,0.012301750279031881,-0.01350996582695587,0
404,0.016159999999999952,4.99972120164681,0.009013851957515154,-0.016889170107533664,0
405,0.016199999999999992,4.999392411494816,0.01032901128459894,-0.015665001779417938,0
406,0.016240000000000032,4.99972120164681,0.009671431620803153,-0.016413256941113393,0
407,0.016280000000000072,5.000378781950543,0.009342641789095676,-0.016832406230745015,0
408,0.016320000000000112,5.000049991798719,0.009342641789095676,-0.016922449111860645,0
409,0.01635999999999993,4.99972120164681,0.010000221452637598,-0.016354595217872855,0
410,0.01639999999999997,5.000049991798719,0.008027482463535476,-0.01841674233230059,0
411,0.01644000000000001,5.000378781950543,0.0076986926324629085,-0.018834622113895062,0
412,0.01648000000000005,5.000049991798719,0.01328811977796078,-0.013333966215637871,0
413,0.01652000000000009,5.000049991798719,0.014932068945377922,-0.011778469065806232,0
414,0.016559999999999908,4.99972120164681,0.017233597785083862,-0.009565072489766065,0
415,0.016599999999999948,5.000049991798719,0.02216544531962629,-0.004721036942820379,0
416,0.016639999999999988,5.000049991798719,0.024466974178816228,-0.002506999275129932,0
417,0.016680000000000028,5.000707572102282,0.027754872559823354,0.00069372922837623,0
418,0.016720000000000068,5.000049991798719,0.027754872559823354,0.0006068811806423744,0
419,0.016760000000000108,5.000707572102282,0.03268672015498804,0.005452203071470391,0
420,0.016799999999999926,5.000378781950543,0.04123525605372079,0.013914536120749551,0
421,0.016839999999999966,4.99972120164681,0.04320799511934159,0.015801395701135725,0
422,0.016880000000000006,5.000378781950543,0.043865574808886185,0.0163734197768448,0
423,0.016920000000000046,4.999392411494816,0.04912621234330475,0.021548826073845645,0
424,0.016960000000000086,5.000378781950543,0.05044137173192248,0.022779079104315016,0
425,0.016999999999999904,4.999392411494816,0.04781105295669137,0.020064179350883563,0
426,0.017039999999999944,5.000378781950543,0.04748226311035131,0.01965113440479126,0
427,0.017079999999999984,5.000049991798719,0.050112581884580176,0.0221975244540318,0
428,0.017120000000000024,4.99972120164681,0.05635958900548195,0.028360929718835068,0
429,0.017160000000000064,5.000378781950543,0.05274290066682373,0.02466096688489856,0
430,0.017200000000000104,5.000378781950543,0.052414110818605225,0.024249230391951183,0
431,0.017239999999999922,5.000049991798719,0.04846863264974746,0.020221133916436453,0
432,0.017279999999999962,5.000378781950543,0.045838313880531376,0.01750852566394552,0
433,0.017320000000000002,5.000049991798719,0.045509524034943585,0.01709777564155735,0
434,0.017360000000000042,4.99972120164681,0.04945500219027131,0.02096162340742815,0
435,0.017400000000000082,5.000049991798719,0.04912621234330475,0.02055153343698822,0
436,0.0174399999999999,5.000049991798719,0.04748226311035131,0.018826614822950703,0
437,0.01747999999999994,5.000049991798719,0.048139842803156765,0.019403556351227196,0
438,0.01751999999999998,5.000378781950543,0.050112581884580176,0.021295988956597192,0
439,0.01756000000000002,4.999392411494816,0.048139842803156765,0.0192432755572654,0
440,0.01760000000000006,4.99972120164681,0.04419436465384674,0.015218155715605058,0
441,0.0176400000000001,5.000378781950543,0.04255041543029908,0.013494897890416262,0
442,0.017679999999999918,4.99972120164681,0.046495893572083224,0.017361400984152196,0
443,0.017719999999999958,5.000049991798719,0.04945500219027131,0.020241868568495892,0
444,0.017759999999999998,5.000049991798719,0.048139842803156765,0.018848402620073375,0
445,0.017800000000000038,5.000378781950543,0.04945500219027131,0.020085590374465254,0
446,0.017840000000000078,5.000049991798719,0.04748226311035131,0.018035215044167646,0
447,0.017879999999999896,4.99972120164681,0.044851944344144246,0.015327595861393293,0
448,0.017919999999999936,4.999063621342738,0.04419436465384674,0.014593052037504212,0
449,0.017959999999999976,4.99972120164681,0.04879742249646346,0.019119482476365295,0
450,0.018000000000000016,4.99972120164681,0.04715347326413659,0.017399243014668456,0
451,0.018040000000000056,5.000378781950543,0.04978379203736312,0.01995360917514457,0
452,0.018080000000000096,4.99972120164681,0.045509524034943585,0.015603726616506917,0
453,0.018119999999999914,5.000049991798719,0.04419436465384674,0.01421329117331046,0
454,0.018159999999999954,5.000378781950543,0.04222162558596615,0.012165614972703184,0
455,0.018199999999999994,5.000049991798719,0.04024888652260587,0.01011827813890658,0
456,0.018240000000000034,5.000378781950543,0.04024888652260587,0.010044020161335801,0
457,0.018280000000000074,5.000049991798719,0.029070031915759978,-0.0012087522019875695,0
458,0.018320000000000114,4.999392411494816,0.03433066935967702,0.0039783081324204494,0
459,0.018359999999999932,4.99972120164681,0.037289777936047624,0.0068641806697679365,0
460,0.018399999999999972,5.000049991798719,0.037289777936047624,0.006791286122385193,0
461,0.018440000000000012,4.99972120164681,0.0392625169926218,0.008691472542003382,0
462,0.018480000000000052,5.000049991798719,0.03465945920099257,0.0040162044402581,0
463,0.018520000000000092,5.000378781950543,0.03334429983648583,0.0026291775065100456,0
464,0.01855999999999991,5.000378781950543,0.03893372714954513,0.008147080402854178,0
465,0.01859999999999995,5.000049991798719,0.036303408409458296,0.005445580807841303,0
466,0.01863999999999999,4.99972120164681,0.037618567778495635,0.006689903290611112,0
467,0.01868000000000003,5.000049991798719,0.03860493730659416,0.007605780305571411,0
468,0.01872000000000007,4.999392411494816,0.040577676366185214,0.009508371627220638,0
469,0.01876000000000011,5.000707572102282,0.040577676366185214,0.00943856906413357,0
470,0.018799999999999928,5.001036362253937,0.03860493730659416,0.007396373013554825,0
471,0.018839999999999968,4.999392411494816,0.04287920527475757,0.011601529957655808,0
472,0.018880000000000008,5.000049991798719,0.044851944344144246,0.013505504362307503,0
473,0.018920000000000048,4.99972120164681,0.04123525605372079,0.009820398156449996,0
474,0.018960000000000088,5.000378781950543,0.041564045897676996,0.01008111722181294,0
475,0.018999999999999906,4.999392411494816,0.03893372714954513,0.007383075217029918,0
476,0.019039999999999946,5.000378781950543,0.04189283574175878,0.010274808457192388,0
477,0.019079999999999986,5.000049991798719,0.03959130683582415,0.007906252484016087,0
478,0.019120000000000026,5.000049991798719,0.04189283574175878,0.01014110298527491,0
479,0.019160000000000066,5.000049991798719,0.043865574808886185,0.012047512685590567,0
480,0.019200000000000106,4.99972120164681,0.04222162558596615,0.01033758350655814,0
481,0.019239999999999924,5.000378781950543,0.04353678496405114,0.011587112709597589,0
482,0.019279999999999964,5.000049991798719,0.043865574808886185,0.011850622528348922,0
483,0.019320000000000004,5.000378781950543,0.041564045897676996,0.009484164105435549,0
484,0.019360000000000044,4.999063621342738,0.040577676366185214,0.008433215939554768,0
485,0.019400000000000084,4.99972120164681,0.04255041543029908,0.010341727607043664,0
486,0.019439999999999902,5.001036362253937,0.044851944344144246,0.012579380719985243,0
487,0.019479999999999942,5.000378781950543,0.04781105295669137,0.015474965482811253,0
488,0.019519999999999982,5.000049991798719,0.045838313880531376,0.01343905486107274,0
489,0.019560000000000022,5.000049991798719,0.046495893572083224,0.0140338156616431,0
490,0.019600000000000062,5.000378781950543,0.045838313880531376,0.013313770081650918,0
491,0.019640000000000102,4.999063621342738,0.045838313880531376,0.013251657541180947,0
492,0.01967999999999992,5.000049991798719,0.048139842803156765,0.015491427614216386,0
493,0.01971999999999996,5.000378781950543,0.048139842803156765,0.01543002279589199,0
494,0.01976,5.000707572102282,0.050770161579389975,0.017999291122923165,0
495,0.01980000000000004,5.000378781950543,0.04945500219027131,0.016623435989048363,0
496,0.01984000000000008,5.000378781950543,0.05142774127470057,0.018535834365952984,0
497,0.019879999999999898,5.000049991798719,0.05175653112254362,0.018804638873746143,0
498,0.019919999999999938,5.000049991798719,0.05307169051516736,0.020060168621490963,0
499,0.019959999999999978,5.000378781950543,0.05340048036363608,0.020329684845396587,0
500,0.020000000000000018,5.000049991798719,0.04978379203736312,0.016654079237465348,0
501,0.020040000000000058,4.999392411494816,0.061291436764380286,0.02810316334575779,0
502,0.020080000000000098,5.000378781950543,0.059647487508292976,0.026401010451343326,0
503,0.020119999999999916,5.000049991798719,0.05603079915588792,0.022726475755903492,0
504,0.020159999999999956,4.99972120164681,0.061291436764380286,0.02792962462897473,0
505,0.020199999999999996,4.99972120164681,0.05767474840510757,0.02425580545163785,0
506,0.020240000000000036,5.000378781950543,0.05800353825532628,0.024527822708310387,0
507,0.020280000000000076,4.999392411494816,0.056688378855200935,0.02315624924373122,0
508,0.020319999999999894,4.99972120164681,0.06622328455134852,0.032635099706500775,0
509,0.020359999999999934,5.000049991798719,0.07016876280110178,0.03652488185334005,0
510,0.020399999999999974,5.000049991798719,0.06819602367398483,0.0344968060505619,0
511,0.020440000000000014,5.000378781950543,0.06852481352819326,0.034770618950547,0
512,0.020480000000000054,5.000378781950543,0.06951118309156513,0.03570237157271056,0
513,0.020520000000000094,5.003995473615012,0.07082634251113593,0.03696327435305305,0
514,0.02055999999999991,5.000707572102282,0.06786723381990087,0.03395026961091841,0
515,0.02059999999999995,5.001365152405508,0.06852481352819326,0.03455431414036817,0
516,0.02063999999999999,5.000378781950543,0.07510061063847716,0.04107693722497003,0
517,0.02068000000000003,5.002022732708393,0.07805971935431567,0.04398323334676192,0
518,0.02072000000000007,5.000378781950543,0.07477182078178243,0.04064288388765936,0
519,0.02076000000000011,5.001365152405508,0.0770733497812526,0.04289232398124225,0
520,0.02079999999999993,5.000707572102282,0.07345666135624548,0.0392239089015935,0
521,0.02083999999999997,5.000049991798719,0.0757581903522391,0.04147407376210954,0
522,0.02088000000000001,4.99972120164681,0.0757581903522391,0.04142307241106513,0
523,0.02092000000000005,4.999392411494816,0.08036124836247038,0.04597549211730102,0
524,0.02096000000000009,5.000049991798719,0.07115513236633955,0.03671910112418243,0
525,0.020999999999999908,4.997419670581074,0.06655207440480995,0.03206613172997004,0
526,0.021039999999999948,4.99972120164681,0.07214150193269635,0.03760601164411067,0
527,0.021079999999999988,4.99972120164681,0.0757581903522391,0.0411735165208076,0
528,0.021120000000000028,5.000049991798719,0.0737854512124434,0.03915195815835569,0
529,0.021160000000000068,4.99972120164681,0.0714839222216675,0.03680197451172569,0
530,0.021200000000000108,5.000378781950543,0.0760869802093063,0.04135694265424388,0
531,0.021239999999999926,5.000049991798719,0.08233398751715135,0.04755622516894819,0
532,0.021279999999999966,5.000378781950543,0.08332035709616414,0.0484952352453577,0
533,0.021320000000000006,5.000378781950543,0.08233398751715135,0.04746187169014393,0
534,0.021360000000000046,5.000378781950543,0.08792341514628582,0.05300467110264806,0
535,0.021400000000000086,5.000049991798719,0.08627946583988738,0.0513144595696579,0
536,0.021439999999999904,4.99972120164681,0.08825220500793643,0.05324130272891786,0
537,0.021479999999999944,5.000049991798719,0.08759462528475882,0.052538193439810074,0
538,0.021519999999999984,5.000049991798719,0.09318405294752126,0.05808245820184599,0
539,0.021560000000000024,4.999392411494816,0.09581437185998914,0.06066798109842059,0
540,0.021600000000000064,4.99972120164681,0.09581437185998914,0.06062355218427114,0
541,0.021640000000000104,5.000049991798719,0.09614316172460258,0.06090828045066703,0
542,0.02167999999999992,5.000049991798719,0.10008864010957542,0.06481006476481618,0
543,0.02171999999999996,5.000378781950543,0.095485581995499,0.06016368031604203,0
544,0.02176,5.000049991798719,0.09384163267489809,0.05847677260286786,0
545,0.02180000000000004,5.000049991798719,0.09811590091487153,0.06270845059565397,0
546,0.02184000000000008,5.000378781950543,0.0971295313191825,0.06167985909868434,0
547,0.0218799999999999,5.001036362253937,0.09318405294752126,0.05769252736942585,0
548,0.02191999999999994,4.99972120164681,0.09219768335738154,0.05666467316040122,0
549,0.02195999999999998,5.000049991798719,0.08858099486971066,0.053006868984835524,0
550,0.02200000000000002,5.000049991798719,0.08496430639699507,0.04934943394473833,0
551,0.02204000000000006,4.99972120164681,0.07805971935431567,0.042404469641955635,0
552,0.0220800000000001,5.000378781950543,0.07444303092521187,0.0387477734440305,0
553,0.022119999999999918,5.000049991798719,0.07345666135624548,0.03772176577876363,0
554,0.022159999999999958,4.99972120164681,0.06622328455134852,0.030449120728557814,0
555,0.022199999999999998,4.99972120164681,0.05635958900548195,0.020546526964073268,0
556,0.022240000000000038,4.99972120164681,0.04846863264974746,0.012617042589335985,0
557,0.022280000000000078,5.000049991798719,0.040577676366185214,0.0046879286565322115,0
558,0.022319999999999895,4.99972120164681,0.034988249042434,-0.000939285779334699,0
559,0.022359999999999935,5.000707572102282,0.029398821755059465,-0.006566129477119265,0
560,0.022399999999999975,4.99972120164681,0.027097292882612076,-0.008904703896479023,0
561,0.022440000000000015,4.99972120164681,0.024466974178816228,-0.01157169712468862,0
562,0.022480000000000055,5.000378781950543,0.018877546960101396,-0.01719742768911188,0
563,0.022520000000000095,4.99972120164681,0.015260858779241576,-0.020850047883565537,0
564,0.022559999999999913,5.000378781950543,0.013616909611190692,-0.022529557582487064,0
565,0.022599999999999953,5.000378781950543,0.006054743479005864,-0.030126912615014587,0
566,0.022639999999999993,5.000049991798719,0.007369902801517392,-0.028846570417320055,0
567,0.022680000000000033,5.000049991798719,0.003424424840084442,-0.03282649358585646,0
568,0.022720000000000073,5.000707572102282,0.007041112970698912,-0.029243878605257206,0
569,0.022760000000000113,5.000049991798719,0.009013851957515154,-0.027304840574809225,0
570,0.02279999999999993,5.000378781950543,0.008356272294735026,-0.02799574886657115,0
571,0.02283999999999997,5.000378781950543,0.0030956350107915753,-0.03328934232119263,0
572,0.02288000000000001,5.000049991798719,0.005397163818512657,-0.031020397097753685,0
573,0.02292000000000005,5.000049991798719,0.004410794328726292,-0.03203897746016232,0
574,0.02296000000000009,5.000378781950543,0.006712323140007484,-0.02976928668741076,0
575,0.02299999999999991,5.000707572102282,0.012630540111881347,-0.02388253480037525,0
576,0.02303999999999995,5.000378781950543,0.015589648613231935,-0.020954518313409956,0
577,0.02307999999999999,5.000049991798719,0.01789117745471111,-0.018683708301941028,0
578,0.02312000000000003,4.99972120164681,0.016576018115963126,-0.02002921317524496,0
579,0.02316000000000007,5.000049991798719,0.014603279111640999,-0.022031924310434867,0
580,0.02320000000000011,4.99972120164681,0.019863916466630674,-0.016800885577239195,0
581,0.023239999999999927,5.000049991798719,0.024138184341410046,-0.01255584271264553,0
582,0.023279999999999967,4.99972120164681,0.030056401434036775,-0.006666476918915351,0
583,0.023320000000000007,4.99972120164681,0.0323579303144281,-0.0043934255293068825,0
584,0.023360000000000047,4.999392411494816,0.034988249042434,-0.0017912103900047313,0
585,0.023400000000000087,5.000378781950543,0.033015509995673945,-0.0037916790322858676,0
586,0.023439999999999905,5.000049991798719,0.03334429983648583,-0.0034902447055733254,0
587,0.023479999999999945,5.001036362253937,0.031700350633686175,-0.005161175255678656,0
588,0.023519999999999985,5.000049991798719,0.03465945920099257,-0.002228673786382078,0
589,0.023560000000000025,4.99972120164681,0.03663219825152894,-0.0002821675049298894,0
590,0.023600000000000065,5.000378781950543,0.04090646620989019,0.003966242090027591,0
591,0.023640000000000105,5.000049991798719,0.04222162558596615,0.005255917582257491,0
592,0.023679999999999923,5.000049991798719,0.04616710372624461,0.009176286389244837,0
593,0.023719999999999963,5.000049991798719,0.04846863264974746,0.011453080598126289,0
594,0.023760000000000003,4.99972120164681,0.04616710372624461,0.009127191643901501,0
595,0.023800000000000043,5.000378781950543,0.04616710372624461,0.009103206359421356,0
596,0.023840000000000083,5.000049991798719,0.043865574808886185,0.006778066963277041,0
597,0.0238799999999999,5.000049991798719,0.04189283574175878,0.004782092279618247,0
598,0.02391999999999994,5.000049991798719,0.04255041543029908,0.005416811267547332,0
599,0.02395999999999998,5.000049991798719,0.06227780631952985,0.0251217164228559,0
600,0.02400000000000002,4.99972120164681,0.08693704556207577,0.049758844946038244,0
601,0.02404000000000006,4.99972120164681,0.08036124836247038,0.04316131208659597,0
602,0.0240800000000001,4.999392411494816,0.08299156723636938,0.045770270402248896,0
603,0.02411999999999992,4.99972120164681,0.07937487878680298,0.04213259653518538,0
604,0.02415999999999996,5.000049991798719,0.10008864010957542,0.06282574761745954,0
605,0.0242,5.000378781950543,0.10271895904274086,0.06543583152046492,0
606,0.02424000000000004,5.000049991798719,0.10830838680184553,0.0710053994901743,0
607,0.02428000000000008,5.000049991798719,0.10633564758869515,0.06901317575590499,0
608,0.024319999999999897,4.99972120164681,0.11291144498304434,0.07556986392200593,0
609,0.024359999999999937,5.000707572102282,0.10896596654054455,0.0716056515658035,0
610,0.024399999999999977,5.000049991798719,0.10633564758869515,0.06895697403355054,0
611,0.024440000000000017,5.000378781950543,0.10469169824778124,0.06729504146136214,0
612,0.024480000000000057,5.000378781950543,0.09943106037751487,0.06201679572185491,0
613,0.024520000000000097,5.000049991798719,0.09844469078034762,0.06101319362745751,0
614,0.024559999999999915,4.999392411494816,0.09515679213113215,0.057708437860070294,0
615,0.024599999999999955,5.000378781950543,0.06655207440480995,0.029087238398751096,0
616,0.024639999999999995,5.000049991798719,0.052085320970511856,0.014604378613813813,0
617,0.024680000000000035,5.000378781950543,0.04189283574175878,0.004396162417027456,0
618,0.024720000000000075,4.99972120164681,0.03334429983648583,-0.004167729078361666,0
619,0.024759999999999893,5.000049991798719,0.02676850304419573,-0.010758506090478306,0
620,0.024799999999999933,5.000049991798719,0.01789117745471111,-0.019650436540067776,0
621,0.024839999999999973,5.000378781950543,0.01065780111668721,-0.026898042391985136,0
622,0.024880000000000013,5.000707572102282,0.0014516858662357995,-0.03611801182657308,0
623,0.024920000000000053,5.000378781950543,-0.007096849634115457,-0.04468002620070438,0
624,0.024960000000000093,5.000378781950543,-0.019590862902407788,-0.057187143054768574,0
625,0.02499999999999991,5.000049991798719,-0.031756086169998185,-0.06936509464542046,0
626,0.02503999999999995,4.99972120164681,-0.04293493982813261,-0.08055630139215494,0
627,0.02507999999999999,5.000378781950543,-0.05049710545340523,-0.08813044490276797,0
628,0.02512000000000003,5.000049991798719,-0.05378500352999273,-0.09142994569559254,0
629,0.02516000000000007,4.99972120164681,-0.05049710545340523,-0.08815327520325128,0
630,0.02520000000000011,5.000378781950543,-0.0491819462191435,-0.08684896846131515,0
631,0.02523999999999993,5.000378781950543,-0.04852436660123595,-0.0862018662868422,0
632,0.02527999999999997,4.99972120164681,-0.05049710545340523,-0.08818470757954577,0
633,0.02532000000000001,5.000378781950543,-0.05049710545340523,-0.08819443506613318,0
634,0.02536000000000005,4.999392411494816,-0.03931825189622702,-0.07702493409351294,0
635,0.02540000000000009,5.000049991798719,-0.030112137090063842,-0.06782779702476124,0
636,0.025439999999999907,5.000707572102282,-0.0228787611001723,-0.06060302398298463,0
637,0.025479999999999947,5.000707572102282,-0.017618123977595282,-0.05535061508004448,0
638,0.025519999999999987,5.000378781950543,-0.01991965272276132,-0.05765999738015762,0
639,0.025560000000000027,4.99972120164681,-0.012028696998925656,-0.04977652061333891,0
640,0.025600000000000067,5.000378781950543,-0.012357486822223915,-0.050112414865455965,0
641,0.025640000000000107,5.000049991798719,-0.0031513717215847087,-0.04091302973814319,0
642,0.025679999999999925,5.000378781950543,-0.0031513717215847087,-0.040919385331657995,0
643,0.025719999999999965,5.000378781950543,-0.00348016154833046,-0.041254156450763954,0
644,0.025760000000000005,4.99972120164681,-0.004466531027802631,-0.04224613300307614,0
645,0.025800000000000045,4.99972120164681,-0.002165002240582567,-0.03994983715378908,0
646,0.025840000000000085,5.000378781950543,-0.0024937920677107622,-0.04028348587153631,0
647,0.025879999999999903,5.000378781950543,-0.005452900506126915,-0.043247079243831685,0
648,0.025919999999999943,5.000049991798719,-0.0008498429307955274,-0.038648132739196,0
649,0.025959999999999983,4.99972120164681,0.004739584158527918,-0.03306244295392401,0
650,0.026000000000000023,5.000049991798719,0.003753214669504526,-0.034052176079877976,0
651,0.026040000000000063,5.000378781950543,0.0030956350107915753,-0.03471274581090916,0
652,0.026080000000000103,5.000049991798719,0.0030956350107915753,-0.03471536242410961,0
653,0.02611999999999992,5.000707572102282,-0.0018362124133269458,-0.039649453110792335,0
654,0.02615999999999996,5.000378781950543,-0.005781690331979852,-0.0435968010528429,0
655,0.0262,5.000378781950543,0.001122896037706475,-0.03669371158184641,0
656,0.02624000000000004,4.99972120164681,-0.0024937920677107622,-0.040311523578694414,0
657,0.02628000000000008,5.000378781950543,-0.003808951374948702,-0.041627433890543575,0
658,0.0263199999999999,5.000378781950543,-0.005124110680146385,-0.042942971436964045,0
659,0.02635999999999994,5.000707572102282,-0.004466531027802631,-0.042285397388877974,0
660,0.02639999999999998,4.99972120164681,-0.00874079875891258,-0.046559298216697007,0
661,0.02644000000000002,5.000378781950543,-0.012028696998925656,-0.04984645717828093,0
662,0.02648000000000006,5.000049991798719,-0.01597417487006185,-0.053790823531254764,0
663,0.0265200000000001,5.000378781950543,-0.010713537704454032,-0.04852870274615158,0
664,0.026559999999999917,5.000049991798719,-0.01597417487006185,-0.05378748433232705,0
665,0.026599999999999957,5.000049991798719,-0.01597417487006185,-0.05378525693735037,0
666,0.026639999999999997,5.000049991798719,-0.012686276645394332,-0.05049475964955151,0
667,0.026680000000000037,5.000049991798719,-0.0166317545134594,-0.05443726693671791,0
668,0.026720000000000077,4.99972120164681,-0.017618123977595282,-0.05542029445557346,0
669,0.026759999999999895,5.000049991798719,-0.0166317545134594,-0.054430211838160006,0
670,0.026799999999999935,4.99972120164681,-0.013672646114138112,-0.05146701923694774,0
671,0.026839999999999975,5.000049991798719,-0.006110480157705198,-0.04390039819239414,0
672,0.026880000000000015,4.99972120164681,-0.0018362124133269458,-0.03962130463904953,0
673,0.026920000000000055,4.99972120164681,0.0027668451816259126,-0.03501305068266942,0
674,0.026960000000000095,4.99972120164681,0.003753214669504526,-0.03402111445228869,0
675,0.026999999999999913,4.99972120164681,0.001780475694892425,-0.035987916477711525,0
676,0.027039999999999953,5.000378781950543,0.008027482463535476,-0.029734602730581698,0
677,0.027079999999999993,5.000378781950543,0.015918438447348998,-0.021836969919375726,0
678,0.027120000000000033,5.000049991798719,0.019863916466630674,-0.017884445407190256,0
679,0.027160000000000073,4.999392411494816,0.020521496138282788,-0.017219449763520137,0
680,0.027200000000000113,4.999392411494816,0.024466974178816228,-0.013266186461254551,0
681,0.02723999999999993,5.000049991798719,0.025124553854007567,-0.012600452427020216,0
682,0.02727999999999997,5.000049991798719,0.024138184341410046,-0.013578298678670522,0
683,0.02732000000000001,5.000707572102282,0.024795764016348754,-0.012911827039290526,0
684,0.02736000000000005,4.99972120164681,0.028412452237539368,-0.009285878351578347,0
685,0.02740000000000009,5.000049991798719,0.03202914047399413,-0.0056595613509392885,0
686,0.02743999999999991,5.000049991798719,0.0323579303144281,-0.00532077465607967,0
687,0.02747999999999995,5.001036362253937,0.027426082721154613,-0.010242257515111368,0
688,0.02751999999999999,5.000707572102282,0.030385191273714543,-0.007272416561922568,0
689,0.02756000000000003,5.000049991798719,0.028083662398618273,-0.009562845586435744,0
690,0.02760000000000007,5.000049991798719,0.025453343691792682,-0.012181697212160645,0
691,0.02764000000000011,4.99972120164681,0.02117907581044083,-0.01644413100433448,0
692,0.027679999999999927,5.000049991798719,0.02117907581044083,-0.016431930132522924,0
693,0.027719999999999967,5.000049991798719,0.020521496138282788,-0.01707694237868303,0
694,0.027760000000000007,5.000049991798719,0.019206336795484613,-0.018379167972747183,0
695,0.027800000000000047,4.99972120164681,0.016576018115963126,-0.020996186815251748,0
696,0.027840000000000087,5.000378781950543,0.015589648613231935,-0.021968890630138925,0
697,0.027879999999999905,5.000378781950543,0.015589648613231935,-0.021954859331925952,0
698,0.027919999999999945,5.000049991798719,0.011315380781244458,-0.0262147304987917,0
699,0.027959999999999985,5.000049991798719,0.011315380781244458,-0.026199968713223207,0
700,0.028000000000000025,4.99972120164681,0.016576018115963126,-0.020924204721952687,0
701,0.028040000000000065,5.000707572102282,0.013616909611190692,-0.02386782195165435,0
702,0.028080000000000105,5.000049991798719,0.014274489278030808,-0.023194386646689713,0
703,0.028119999999999923,4.999063621342738,0.010000221452637598,-0.02745243472937004,0
704,0.028159999999999963,5.000049991798719,0.007369902801517392,-0.03006616979465409,0
705,0.028200000000000003,5.000049991798719,0.0014516858662357995,-0.03596743956544058,0
706,0.028240000000000043,5.000049991798719,0.0014516858662357995,-0.035950129089749566,0
707,0.028280000000000083,5.000707572102282,0.006383533309443135,-0.031000608130116458,0
708,0.0283199999999999,4.999392411494816,0.00506837398845672,-0.032297731167401096,0
709,0.02835999999999994,4.99972120164681,0.006383533309443135,-0.03096417307189272,0
710,0.02839999999999998,5.000378781950543,0.003753214669504526,-0.033575730725941354,0
711,0.02844000000000002,4.999392411494816,0.0027668451816259126,-0.0345429772990098,0
712,0.02848000000000006,5.000707572102282,0.0014516858662357995,-0.035838652056112266,0
713,0.0285200000000001,5.000049991798719,-0.00019226327513760522,-0.037462755284157455,0
714,0.02855999999999992,4.999392411494816,0.0021092655236763236,-0.03514101950840512,0
715,0.02859999999999996,5.000378781950543,0.007041112970698912,-0.030188604315257064,0
716,0.02864,4.999063621342738,0.0024380553525874815,-0.03477073371547106,0
717,0.02868000000000004,5.001036362253937,0.007041112970698912,-0.03014638770809644,0
718,0.02872000000000008,4.998077250885994,0.006054743479005864,-0.03111110894255712,0
719,0.028759999999999897,4.999063621342738,-0.0028225818947114484,-0.03996642649745904,0
720,0.028799999999999937,5.000049991798719,-0.010055958056451306,-0.04717743558817529,0
721,0.028839999999999977,4.999063621342738,-0.005124110680146385,-0.04222286220100111,0
722,0.028880000000000017,5.001365152405508,0.0027668451816259126,-0.03430882170386305,0
723,0.028920000000000057,4.999392411494816,0.0014516858662357995,-0.035600538077725584,0
724,0.028960000000000097,5.001036362253937,0.004739584158527918,-0.03228883885906326,0
725,0.028999999999999915,5.000707572102282,0.006054743479005864,-0.030949520951675004,0
726,0.029039999999999955,4.998406041038327,0.005725953648695714,-0.031253794861819534,0
727,0.029079999999999995,5.001036362253937,0.004410794328726292,-0.03254408125863389,0
728,0.029120000000000035,5.002022732708393,0.0014516858662357995,-0.035477960128225676,0
729,0.029160000000000075,5.000049991798719,0.006712323140007484,-0.030191736928036266,0
730,0.029200000000000115,5.000707572102282,0.007369902801517392,-0.02950821534579176,0
731,0.029239999999999933,4.99972120164681,0.013616909611190692,-0.02323491096324551,0
732,0.029279999999999973,5.000378781950543,0.012630540111881347,-0.024194627582697144,0
733,0.029320000000000013,5.000378781950543,0.01295932994485767,-0.023838829911005756,0
734,0.029360000000000053,4.99972120164681,0.006054743479005864,-0.030716053930384984,0
735,0.029400000000000093,5.000049991798719,0.004082004499051814,-0.03266107621017984,0
736,0.02943999999999991,5.000049991798719,0.01065780111668721,-0.02605720899573916,0
737,0.02947999999999995,5.000049991798719,0.014932068945377922,-0.0217545170336057,0
738,0.02951999999999999,5.000049991798719,0.006712323140007484,-0.02994548553187121,0
739,0.02956000000000003,5.000378781950543,0.011315380781244458,-0.02531329777580763,0
740,0.02960000000000007,5.000378781950543,0.008685062126061585,-0.027914133877346283,0
741,0.02964000000000011,4.99972120164681,0.010000221452637598,-0.026569139930174613,0
742,0.02967999999999993,4.99972120164681,0.0076986926324629085,-0.028840482437628795,0
743,0.02971999999999997,5.000049991798719,0.006054743479005864,-0.03045389396402597,0
744,0.02976000000000001,5.000049991798719,0.012630540111881347,-0.023847208770493993,0
745,0.02980000000000005,5.000049991798719,0.012630540111881347,-0.023815969659939186,0
746,0.02984000000000009,4.999063621342738,0.013945699444547363,-0.022469221053472228,0
747,0.029879999999999907,4.99972120164681,0.016247228281592724,-0.020135753168984097,0
748,0.029919999999999947,4.999063621342738,0.016576018115963126,-0.01977467490608378,0
749,0.029959999999999987,5.000378781950543,0.01065780111668721,-0.025660254491245874,0
750,0.030000000000000027,5.000378781950543,0.008685062126061585,-0.027600007480623773,0
751,0.030040000000000067,5.000049991798719,0.011315380781244458,-0.02493635463845412,0
752,0.030080000000000107,5.000049991798719,0.015260858779241576,-0.02095719467206896,0
753,0.030119999999999925,4.99972120164681,0.015918438447348998,-0.02026558566145107,0
754,0.030159999999999965,4.99972120164681,0.013945699444547363,-0.022203948357837674,0
755,0.030200000000000005,5.000378781950543,0.013616909611190692,-0.02249801533402975,0
756,0.030240000000000045,5.000049991798719,0.013945699444547363,-0.022134156508849007,0
757,0.030280000000000085,4.99972120164681,0.009671431620803153,-0.026373009625132813,0
758,0.030319999999999903,4.999392411494816,0.013945699444547363,-0.02206298180024601,0
759,0.030359999999999943,4.99972120164681,0.014603279111640999,-0.021369297263210567,0
760,0.030399999999999983,5.000049991798719,0.015918438447348998,-0.020017688616571265,0
761,0.030440000000000023,4.99972120164681,0.016576018115963126,-0.019323315626770636,0
762,0.030480000000000063,4.99972120164681,0.015918438447348998,-0.01994375839759979,0
763,0.030520000000000103,5.000049991798719,0.015918438447348998,-0.01990627835979329,0
764,0.03055999999999992,5.000049991798719,0.015589648613231935,-0.020197245455577266,0
765,0.03059999999999996,5.000049991798719,0.015589648613231935,-0.020159080459128235,0
766,0.03064,4.99972120164681,0.019206336795484613,-0.016503885467634677,0
767,0.03068000000000004,4.99972120164681,0.019206336795484613,-0.01646503729383713,0
768,0.03072000000000008,4.999392411494816,0.01821996728971463,-0.01741221771239684,0
769,0.0307599999999999,5.000378781950543,0.016247228281592724,-0.01934542717394606,0
770,0.03079999999999994,5.000707572102282,0.01756238761983417,-0.017990398286723795,0
771,0.03083999999999998,4.99972120164681,0.013616909611190692,-0.02189566720383411,0
772,0.03088000000000002,5.000378781950543,0.016247228281592724,-0.01922480036210137,0
773,0.03092000000000006,4.99972120164681,0.014603279111640999,-0.020827862746576116,0
774,0.0309600000000001,5.000049991798719,0.018877546960101396,-0.016512369967037775,0
775,0.030999999999999917,4.999392411494816,0.01821996728971463,-0.017128387032182356,0
776,0.031039999999999957,4.99972120164681,0.02315181482994949,-0.012154639686866659,0
777,0.031079999999999997,5.000049991798719,0.02019270630239349,-0.015071511686714993,0
778,0.031120000000000037,5.000378781950543,0.02019270630239349,-0.01502893891647595,0
779,0.031160000000000077,4.99972120164681,0.017233597785083862,-0.017945138903991572,0
780,0.031199999999999894,5.000378781950543,0.019863916466630674,-0.015271576418950522,0
781,0.031239999999999934,5.000378781950543,0.025782133529704057,-0.009309780767412953,0
782,0.031279999999999974,5.000049991798719,0.023809394504130166,-0.011238606911155764,0
783,0.031320000000000014,5.000378781950543,0.0264397132059056,-0.008564041528655437,0
784,0.031360000000000054,5.000049991798719,0.027426082721154613,-0.007533092031127999,0
785,0.031400000000000095,4.99972120164681,0.027097292882612076,-0.007816969086043192,0
786,0.03143999999999991,5.000378781950543,0.022494235156274286,-0.012374781730470758,0
787,0.03147999999999995,5.000378781950543,0.024466974178816228,-0.010356465833660289,0
788,0.03151999999999999,4.99972120164681,0.026110923367741706,-0.00866660848688807,0
789,0.03156000000000003,5.000049991798719,0.024466974178816228,-0.010264318746021213,0
790,0.03160000000000007,4.99972120164681,0.027097292882612076,-0.007587430854969586,0
791,0.03164000000000011,5.000378781950543,0.026110923367741706,-0.008526901442449313,0
792,0.03167999999999993,5.000378781950543,0.0264397132059056,-0.008150883456931907,0
793,0.03171999999999997,5.000049991798719,0.02315181482994949,-0.01139122498858391,0
794,0.03176000000000001,5.000049991798719,0.019863916466630674,-0.014631238336497428,0
795,0.03180000000000005,4.999392411494816,0.022494235156274286,-0.01195270698903074,0
796,0.03184000000000009,5.000378781950543,0.02085028597429857,-0.01354811640227981,0
797,0.03187999999999991,5.000378781950543,0.025124553854007567,-0.009224982177282381,0
798,0.03191999999999995,5.000049991798719,0.026110923367741706,-0.00818942027886411,0
799,0.03195999999999999,4.999392411494816,0.021836655483104705,-0.01241417027940839,0
800,0.03200000000000003,4.99972120164681,0.024138184341410046,-0.010062798580406634,0
801,0.03204000000000007,4.99972120164681,0.022494235156274286,-0.011656580513861545,0
802,0.03208000000000011,5.000049991798719,0.020521496138282788,-0.013578828417618038,0
803,0.032119999999999926,5.000049991798719,0.025124553854007567,-0.008924956276341961,0
804,0.032159999999999966,4.99972120164681,0.024466974178816228,-0.009531398768707774,0
805,0.032200000000000006,4.99972120164681,0.024795764016348754,-0.009151149547918312,0
806,0.032240000000000046,4.99972120164681,0.028412452237539368,-0.005482680302679426,0
807,0.032280000000000086,4.999392411494816,0.028083662398618273,-0.005759368039194705,0
808,0.032319999999999904,5.000049991798719,0.02676850304419573,-0.007022104778077884,0
809,0.032359999999999944,5.000049991798719,0.027426082721154613,-0.0063117825404566865,0
810,0.032399999999999984,5.000049991798719,0.029070031915759978,-0.004614771410859644,0
811,0.032440000000000024,4.99972120164681,0.03334429983648583,-0.00028712275438570224,0
812,0.032480000000000064,5.000378781950543,0.03827614746376892,0.0046984238330532065,0
813,0.032520000000000104,5.000378781950543,0.04287920527475757,0.009355498249484673,0
814,0.03255999999999992,5.000378781950543,0.04616710372624461,0.01269773036981249,0
815,0.03259999999999996,5.000378781950543,0.04978379203736312,0.016369068828516128,0
816,0.03264,4.99972120164681,0.05504442960785576,0.021684672437923845,0
817,0.03268000000000004,4.999392411494816,0.059647487508292976,0.02634301167843483,0
818,0.03272000000000008,5.000378781950543,0.06556570484479929,0.0323168250632493,0
819,0.0327599999999999,5.000049991798719,0.060962646912913254,0.02776967729223226,0
820,0.03279999999999994,5.000049991798719,0.060962646912913254,0.027825900967243182,0
821,0.03283999999999998,5.000049991798719,0.05570200930641887,0.022621799948741313,0
822,0.03288000000000002,5.000049991798719,0.05142774127470057,0.01840438081409942,0
823,0.03292000000000006,5.000707572102282,0.045838313880531376,0.012872114019459504,0
824,0.0329600000000001,5.000049991798719,0.04419436465384674,0.01128563648539669,0
825,0.03299999999999992,5.000049991798719,0.05307169051516736,0.02022074452034612,0
826,0.03303999999999996,5.000049991798719,0.056688378855200935,0.023895524900208853,0
827,0.03308,4.99972120164681,0.06359296572814185,0.030858513061655574,0
828,0.03312000000000004,4.999392411494816,0.06885360338252611,0.03617786063298584,0
829,0.03316000000000008,5.000049991798719,0.07937487878680298,0.046758153959703785,0
830,0.033199999999999896,5.000049991798719,0.08825220500793643,0.05569480548312389,0
831,0.033239999999999936,5.000378781950543,0.10107500970858954,0.06857724223755961,0
832,0.033279999999999976,5.000049991798719,0.10962354627973452,0.07718571698293766,0
833,0.033320000000000016,4.99972120164681,0.1234327209159308,0.09105513528008026,0
834,0.033360000000000056,5.000049991798719,0.1270494095467647,0.09473237242214916,0
835,0.033400000000000096,5.000049991798719,0.1300085184375156,0.09775233403531608,0
836,0.033439999999999914,5.000049991798719,0.13132367794768446,0.09912864983729591,0
837,0.033479999999999954,4.999392411494816,0.12737819942302714,0.09524463052938456,0
838,0.033519999999999994,4.99972120164681,0.12737819942302714,0.09530639202393591,0
839,0.033560000000000034,4.99972120164681,0.12540546016728232,0.09339571589075317,0
840,0.033600000000000074,5.000049991798719,0.12211756141747197,0.09017018123906055,0
841,0.033640000000000114,5.000049991798719,0.11521297408265467,0.0833282583228054,0
842,0.03367999999999993,5.000378781950543,0.10633564758869515,0.07451389591008979,0
843,0.03371999999999997,5.000707572102282,0.10140379957517373,0.06964531098008449,0
844,0.03376000000000001,5.000049991798719,0.09285526308401794,0.0611603359116653,0
845,0.03380000000000005,5.000378781950543,0.08200519765772811,0.05037412958164329,0
846,0.03384000000000009,5.000378781950543,0.0714839222216675,0.039917010247059674,0
847,0.03387999999999991,4.999392411494816,0.06688086425839593,0.0353784047195241,0
848,0.03391999999999995,4.99972120164681,0.05931869765744993,0.027880986214999494,0
849,0.03395999999999999,5.000049991798719,0.048139842803156765,0.016767174441620868,0
850,0.03400000000000003,5.000049991798719,0.041564045897676996,0.01025671492274259,0
851,0.03404000000000007,4.99972120164681,0.029727611594485073,-0.0015140883695762284,0
852,0.03408000000000011,5.000378781950543,0.017233597785083862,-0.013942178227852441,0
853,0.03411999999999993,4.99972120164681,0.003753214669504526,-0.02735634513867404,0
854,0.03415999999999997,5.000378781950543,-0.005452900506126915,-0.036495952545128774,0
855,0.03420000000000001,4.99972120164681,-0.013343856291351444,-0.04432010968856102,0
856,0.03424000000000005,5.000049991798719,-0.029454557457189598,-0.0603637220343794,0
857,0.03428000000000009,5.000378781950543,-0.045565258314247556,-0.07640704459015794,0
858,0.034319999999999906,5.000378781950543,-0.06923812431607472,-0.10001224350898866,0
859,0.034359999999999946,5.000378781950543,-0.08962309172105022,-0.12032925575136297,0
860,0.034399999999999986,5.000378781950543,-0.1182278031965366,-0.1488657246893204,0
861,0.034440000000000026,5.000049991798719,-0.145188564819613,-0.17575795710717682,0
862,0.034480000000000066,5.000049991798719,-0.17247811530430668,-0.20297869242875052,0
863,0.034520000000000106,5.000707572102282,-0.20996014698629556,-0.24039162370206016,0
864,0.034559999999999924,5.001036362253937,-0.2434967001486737,-0.2738587919250845,0
865,0.034599999999999964,5.000378781950543,-0.2855817844415817,-0.3158742074653877,0
866,0.034640000000000004,5.000049991798719,-0.317803175560385,-0.3480256467382915,0
867,0.034680000000000044,5.000049991798719,-0.35857309707667584,-0.38872533403787285,0
868,0.034720000000000084,5.000378781950543,-0.3911232747793326,-0.42120499587801824,0
869,0.0347599999999999,5.000049991798719,-0.4147961304049833,-0.44480705472288146,0
870,0.03479999999999994,5.000378781950543,-0.4348522991667003,-0.46479214651557355,0
871,0.03483999999999998,5.000378781950543,-0.45063420207334526,-0.4805026929975021,0
872,0.03488000000000002,5.000049991798719,-0.45194936063368707,-0.48174621641248233,0
873,0.03492000000000006,5.000049991798719,-0.4608266808546275,-0.49055162350495696,0
874,0.0349600000000001,5.000049991798719,-0.46279941866696916,-0.49245217094575766,0
875,0.03499999999999992,5.000049991798719,-0.46181304976145965,-0.49139333516814454,0
876,0.03503999999999996,5.000378781950543,-0.4575387844889738,-0.4870463272679823,0
877,0.03508,5.000049991798719,-0.4539220984698037,-0.48335662361302417,0
878,0.03512000000000004,4.99972120164681,-0.44734630566223954,-0.47670753891148687,0
879,0.03516000000000008,5.000049991798719,-0.45030541243289357,-0.4795930802823688,0
880,0.0351999999999999,5.000378781950543,-0.44866146422843867,-0.477875293927182,0
881,0.03523999999999994,5.000378781950543,-0.4535933088308175,-0.48273302838515475,0
882,0.03527999999999998,4.99972120164681,-0.454908467385883,-0.483973805561866,0
883,0.03532000000000002,5.000378781950543,-0.4532645191916844,-0.48225520551752554,0
884,0.03536000000000006,5.000378781950543,-0.44997662279229544,-0.4788923875607949,0
885,0.0354000000000001,5.000378781950543,-0.44899025386962244,-0.47783082814059036,0
886,0.035439999999999916,5.000378781950543,-0.4427432506621105,-0.47150836626478226,0
887,0.035479999999999956,5.000378781950543,-0.43781140598733126,-0.4665007955227769,0
888,0.035519999999999996,5.000378781950543,-0.4351810888140205,-0.4637944856575492,0
889,0.035560000000000036,5.000378781950543,-0.42959166478975774,-0.4581288030933142,0
890,0.035600000000000076,5.000378781950543,-0.4240022407234225,-0.4524628554179779,0
891,0.035639999999999894,5.000378781950543,-0.4138097614355476,-0.4421935882334829,0
892,0.035679999999999934,4.99972120164681,-0.40822033725078877,-0.4365271126482716,0
893,0.035719999999999974,5.000049991798719,-0.40164454403872485,-0.42987400531807896,0
894,0.035760000000000014,5.000378781950543,-0.39473996110389775,-0.4228918463359673,0
895,0.035800000000000054,5.001036362253937,-0.3901369057787003,-0.41821095382520795,0
896,0.035840000000000094,5.000707572102282,-0.3835611124080708,-0.41155706292396843,0
897,0.03587999999999991,5.000049991798719,-0.37567016028749,-0.4035877537233033,0
898,0.03591999999999995,5.000049991798719,-0.36350494227329033,-0.391343919877456,0
899,0.03595999999999999,5.000378781950543,-0.3519973034312994,-0.37975740725249657,0
900,0.03600000000000003,5.000049991798719,-0.34114724379205,-0.36882821668152543,0
901,0.03604000000000007,5.000378781950543,-0.32733807675514653,-0.3549396623690333,0
902,0.03608000000000011,5.000049991798719,-0.3164880167655977,-0.3440099595672269,0
903,0.03611999999999993,5.000378781950543,-0.2938015272017184,-0.3212435724639245,0
904,0.03615999999999997,5.000049991798719,-0.28163630788574023,-0.30899820169315917,0
905,0.03620000000000001,5.000049991798719,-0.2609225556390281,-0.2882040448903894,0
906,0.03624000000000005,4.99972120164681,-0.2359345363248534,-0.26313536873526483,0
907,0.03628000000000009,5.000049991798719,-0.21291925467551198,-0.2400391787787381,0
908,0.03631999999999991,5.000049991798719,-0.1869448645830749,-0.21398362973380897,0
909,0.03635999999999995,4.99972120164681,-0.16623110985325845,-0.19318846622938737,0
910,0.03639999999999999,5.000049991798719,-0.14485977504911357,-0.17173547365397593,0
911,0.03644000000000003,5.000049991798719,-0.12118691122318002,-0.1479807038878165,0
912,0.03648000000000007,5.000049991798719,-0.09587009776051285,-0.12258173714590945,0
913,0.03652000000000011,5.000378781950543,-0.0715396529191989,-0.09816889251852334,0
914,0.036559999999999926,5.000049991798719,-0.04392130926139491,-0.07046790340222596,0
915,0.036599999999999966,4.99972120164681,-0.0228787611001723,-0.049342464946721926,0
916,0.036640000000000006,5.000049991798719,-0.0015074225859438989,-0.02788799214127244,0
917,0.036680000000000046,5.000378781950543,0.026110923367741706,-0.00018626874048224829,0
918,0.036720000000000086,5.000378781950543,0.04255041543029908,0.016336843081806385,0
919,0.036759999999999904,5.000049991798719,0.06786723381990087,0.04173752269831579,0
920,0.036799999999999944,4.99972120164681,0.09186889349424851,0.06582328421911107,0
921,0.036839999999999984,4.999392411494816,0.12047361204714746,0.09451234438818212,0
922,0.036880000000000024,5.000049991798719,0.1444752731563955,0.11859858603133905,0
923,0.036920000000000064,5.000707572102282,0.1714360439396491,0.14564417541208546,0
924,0.036960000000000104,5.000378781950543,0.20267108427079472,0.17696427154799704,0
925,0.03699999999999992,5.000049991798719,0.23160459627087698,0.20598307570165636,0
926,0.03703999999999996,4.999392411494816,0.26810027747694726,0.24256428454950918,0
927,0.03708,5.000378781950543,0.3006504808399193,0.2752002501797274,0
928,0.03712000000000004,5.001036362253937,0.3387901144912822,0.3134258798589305,0
929,0.03716000000000008,5.000049991798719,0.3844919188843002,0.3592139131733917,0
930,0.0371999999999999,5.003009103162085,0.4269058256010018,0.4017142808360351,0
931,0.03723999999999994,4.999063621342738,0.4722788441004721,0.44717399143473524,0
932,0.03727999999999998,4.997419670581074,0.5123912244771818,0.4873732941906551,0
933,0.03732000000000002,5.000707572102282,0.556777876725186,0.5318470982224528,0
934,0.03736000000000006,4.998734831190575,0.5929447799562828,0.5681013817644475,0
935,0.0374000000000001,5.001693942556992,0.6386465958055072,0.6138908055721222,0
936,0.03743999999999992,5.001036362253937,0.676786242171322,0.652118286662321,0
937,0.03747999999999996,5.001036362253937,0.7007879168592654,0.6762080219569043,0
938,0.03752,5.000378781950543,0.7132819395057993,0.6887903302066068,0
939,0.03756000000000004,5.001693942556992,0.7037470274733646,0.6793439278860984,0
940,0.03760000000000008,5.000707572102282,0.7185425806621187,0.6942282140057286,0
941,0.037639999999999896,5.000049991798719,0.6968424360527692,0.6726170246543663,0
942,0.037679999999999936,4.999392411494816,0.6708680210959701,0.6467317863888051,0
943,0.037719999999999976,5.000049991798719,0.6540997282234148,0.6300528907448643,0
944,0.037760000000000016,5.000707572102282,0.6228646735647613,0.5989074529543211,0
945,0.037800000000000056,5.000049991798719,0.5922871998864417,0.5684198148837268,0
946,0.037840000000000096,5.000049991798719,0.5630248871941244,0.5392475556368774,0
947,0.037879999999999914,5.000049991798719,0.5308034651780253,0.5071164040001329,0
948,0.037919999999999954,5.000049991798719,0.4989108341739461,0.4753142594034624,0
949,0.037959999999999994,5.000049991798719,0.4726076340971017,0.4491017608542812,0
950,0.038000000000000034,4.999392411494816,0.4515650745297467,0.428150117025085,0
951,0.038040000000000074,5.000378781950543,0.4292073554751086,0.405883527007392,0
952,0.038080000000000114,5.000707572102282,0.4104663266561969,0.3872338396105593,0
953,0.03811999999999993,5.000049991798719,0.3900813483465501,0.36694041419253726,0
954,0.03815999999999997,4.99972120164681,0.3739706399836483,0.3509214692732902,0
955,0.03820000000000001,5.000378781950543,0.3598326716407575,0.3368754740066489,0
956,0.03824000000000005,5.000378781950543,0.3486538130977006,0.3257887972510892,0
957,0.03828000000000009,5.000049991798719,0.33714616473342157,0.31437353846230365,0
958,0.03831999999999991,4.99972120164681,0.36246299131679877,0.3397829614840223,0
959,0.03835999999999995,5.000378781950543,0.3200490874195386,0.29746185996091473,0
960,0.03839999999999999,5.000049991798719,0.31478844830784003,0.292294228230261,0
961,0.03844000000000003,5.000707572102282,0.31511723825146676,0.2927162296310337,0
962,0.03848000000000007,5.000049991798719,0.3068974896950304,0.284589895675189,0
963,0.03852000000000011,5.000049991798719,0.30130806071745814,0.27909408350714243,0
964,0.03855999999999993,4.99972120164681,0.29933532108621697,0.27721516195800067,0
965,0.03859999999999997,5.000378781950543,0.3006504808399193,0.2786243401281756,0
966,0.03864000000000001,4.999392411494816,0.29703379152165266,0.2751018686207224,0
967,0.03868000000000005,4.99972120164681,0.293745892153459,0.2719083855158264,0
968,0.03872000000000009,5.000049991798719,0.29111557266717564,0.2693726798016526,0
969,0.038759999999999906,5.000378781950543,0.285526143783271,0.26387806125318913,0
970,0.038799999999999946,5.000378781950543,0.2848685639167647,0.26331548733817634,0
971,0.038839999999999986,4.99972120164681,0.2789503451389692,0.2574924691788564,0
972,0.038880000000000026,4.99972120164681,0.27500486597456103,0.2536423843490528,0
973,0.038920000000000066,4.99972120164681,0.27500486597456103,0.2537379714471594,0
974,0.038960000000000106,5.000378781950543,0.26875785733166124,0.24758674171147582,0
975,0.038999999999999924,5.000049991798719,0.2605381091811092,0.23946296332110031,0
976,0.039039999999999964,5.000378781950543,0.2549486804802404,0.2339696942754702,0
977,0.039080000000000004,5.000049991798719,0.24508498285502775,0.22420234524091917,0
978,0.039120000000000044,4.998734831190575,0.23850918449667496,0.21772308344727861,0
979,0.039160000000000084,5.000707572102282,0.23226217609967434,0.21157279862594444,0
980,0.0391999999999999,5.000049991798719,0.22864548704710824,0.2080530191951866,0
981,0.03923999999999994,4.99972120164681,0.22404242827352536,0.2035470551230337,0
982,0.03927999999999998,5.000049991798719,0.21319236125582722,0.1927942669181681,0
983,0.03932000000000002,5.000378781950543,0.2079317227481386,0.1876310903648044,0
984,0.03936000000000006,5.000378781950543,0.20398624388728276,0.18378325562817366,0
985,0.0394000000000001,5.000049991798719,0.1960952862168741,0.1759901232786244,0
986,0.03943999999999992,5.000707572102282,0.1924785973075063,0.17247143991181932,0
987,0.03947999999999996,5.000049991798719,0.19182101750735198,0.17191204489934384,0
988,0.03952,5.000049991798719,0.19182101750735198,0.172010407953904,0
989,0.03956000000000004,4.99972120164681,0.1937937569092451,0.1740816876973651,0
990,0.03960000000000008,4.999392411494816,0.19543770641409902,0.17582435384929135,0
991,0.0396399999999999,5.000049991798719,0.19806802562805587,0.17855356503270023,0
992,0.03967999999999994,5.000049991798719,0.20234229436696954,0.18292690007870854,0
993,0.03971999999999998,5.000378781950543,0.20530140350567,0.1859852488758053,0
994,0.03976000000000002,5.000049991798719,0.21121962181189158,0.19200287920378895,0
995,0.03980000000000006,5.000707572102282,0.22733032739515835,0.2082131681826615,0
996,0.0398400000000001,5.000378781950543,0.23160459627087698,0.2125871908367298,0
997,0.039879999999999916,5.000378781950543,0.2414682937521372,0.2225508114864152,0
998,0.039919999999999956,5.000049991798719,0.2477153022114744,0.2288979115100251,0
999,0.039959999999999996,5.000378781950543,0.2559350502485366,0.2372179185114287,0
1000,0.040000000000000036,5.000049991798719,0.26711390769574617,0.24849720132572808,0
1001,0.040040000000000076,5.000378781950543,0.2769776055546842,0.2584614899556511,0
1002,0.040080000000000116,5.000378781950543,0.29736258145910344,0.27894722103457403,0
1003,0.040119999999999933,4.999392411494816,0.310185389109042,0.29187094726064344,0
1004,0.040159999999999973,5.000049991798719,0.33057036573025966,0.31235700485622186,0
1005,0.040200000000000014,5.000049991798719,0.3519417126557048,0.333829594149364,0
1006,0.040240000000000054,5.000378781950543,0.37166911023933324,0.35365839448764463,0
1007,0.040280000000000094,5.000049991798719,0.4009314173940364,0.38302226377609594,0
1008,0.04031999999999991,5.000707572102282,0.43413920522334054,0.41633177210891575,0
1009,0.04035999999999995,4.99972120164681,0.46471667420764057,0.44701111895571016,0
1010,0.04039999999999999,5.000378781950543,0.5005547842013882,0.48295126315869047,0
1011,0.04044000000000003,4.999392411494816,0.5354065254047018,0.5179051939042927,0
1012,0.04048000000000007,4.99972120164681,0.5696006877280952,0.5522017000879171,0
1013,0.04052000000000011,5.000049991798719,0.5968902603839102,0.5795937699053684,0
1014,0.04055999999999993,4.999392411494816,0.6274677341943592,0.6102738931609084,0
1015,0.04059999999999997,5.000049991798719,0.6540997282234148,0.6370086878991557,0
1016,0.04064000000000001,5.000049991798719,0.6790877725981501,0.6620996832264342,0
1017,0.04068000000000005,5.000378781950543,0.7106516189369573,0.693766629739001,0
1018,0.04072000000000009,5.000378781950543,0.7369548249041552,0.7201730840776651,0
1019,0.04075999999999991,5.000049991798719,0.7573398099520937,0.7406614646698995,0
1020,0.04079999999999995,4.99972120164681,0.7819990665473836,0.7654242629560805,0
1021,0.04083999999999999,5.000378781950543,0.7935067198068398,0.7770356030254408,0
1022,0.04088000000000003,5.001036362253937,0.8000825217209551,0.7837152358395502,0
1023,0.04092000000000007,5.000707572102282,0.8050143731810683,0.7887510612594942,1
1024,0.04096000000000011,5.000049991798719,0.7977809910467587,0.7816217951132782,0
1025,0.040999999999999925,5.000707572102282,0.7866021278373552,0.7705471888873455,0
1026,0.041039999999999965,4.99972120164681,0.7649019819179765,0.7489514399126278,0
1027,0.041080000000000005,5.000049991798719,0.7402427256934423,0.7243967195584649,0
1028,0.041120000000000045,4.99972120164681,0.7109804090077224,0.6952390766320637,0
1029,0.041160000000000085,4.99972120164681,0.6827044632786342,0.667067941513208,0
1030,0.0411999999999999,5.000049991798719,0.655086098385235,0.6395545230416587,0
1031,0.04123999999999994,5.000378781950543,0.626810154103207,0.611383659952548,0
1032,0.04127999999999998,5.000049991798719,0.6054388013608083,0.5901175221323405,0
1033,0.04132000000000002,5.000378781950543,0.5824234988879574,0.5672075672679273,0
1034,0.04136000000000006,5.000049991798719,0.5620385171175958,0.5469280647479984,0
1035,0.0414000000000001,5.000378781950543,0.5396807956335524,0.5246759531109153,0
1036,0.04143999999999992,5.000049991798719,0.5235700848633494,0.5086709817375261,0
1037,0.04147999999999996,5.000378781950543,0.5081169543617657,0.4933237191347377,0
1038,0.04152,5.000049991798719,0.4962805141355612,0.48159327426024945,0
1039,0.04156000000000004,5.000049991798719,0.4847728640477135,0.4701917459267992,0
1040,0.04160000000000008,5.000378781950543,0.47622432406710596,0.46174945305186055,0
1041,0.0416399999999999,5.000378781950543,0.4670182041690041,0.4526497045581297,0
1042,0.04167999999999994,5.000049991798719,0.45452418444221093,0.4402621794806894,0
1043,0.04171999999999998,5.000049991798719,0.44400290479328997,0.4298475166712404,0
1044,0.04176000000000002,5.000049991798719,0.4334816252554924,0.41943297510703936,0
1045,0.04180000000000006,4.99972120164681,0.4269058256010018,0.4129640335031519,0
1046,0.0418400000000001,5.000707572102282,0.4229603458292752,0.4091255308008026,0
1047,0.04187999999999992,4.99972120164681,0.4183572861155088,0.4046295661158499,0
1048,0.04191999999999996,5.000049991798719,0.4137542264232254,0.4001337183513842,0
1049,0.04196,5.000049991798719,0.4058632670008305,0.3923500866942935,0
1050,0.04200000000000004,4.998734831190575,0.3986298875860264,0.38522414981968617,0
1051,0.04204000000000008,4.99972120164681,0.39271166810457614,0.3794134865896653,0
1052,0.042079999999999895,5.000049991798719,0.3871222386272479,0.37393172601028235,0
1053,0.042119999999999935,5.000049991798719,0.38679344865899107,0.37371071652072296,0
1054,0.042159999999999975,5.000707572102282,0.38219038911505043,0.3692155479694306,0
1055,0.042200000000000015,5.000378781950543,0.380546439283206,0.3676795985763563,0
1056,0.042240000000000055,5.001036362253937,0.3746282199115991,0.36186948802079394,0
1057,0.042280000000000095,4.99972120164681,0.37232669016572273,0.35967617439838057,0
1058,0.04231999999999991,4.99972120164681,0.36805242065217286,0.3555102272448584,0
1059,0.04235999999999995,4.999392411494816,0.36279178127680795,0.3503580153942444,0
1060,0.04239999999999999,4.99972120164681,0.36377815115750733,0.35145291689159824,0
1061,0.04244000000000003,4.99972120164681,0.3670660507671113,0.35484945113597244,0
1062,0.04248000000000007,4.99972120164681,0.3604902515590956,0.3483823885060974,0
1063,0.04252000000000011,4.99972120164681,0.3598326716407575,0.3478336460335769,0
1064,0.04255999999999993,5.000049991798719,0.3565447720557949,0.344654683685478,0
1065,0.04259999999999997,5.000049991798719,0.35292808252529895,0.3411470301053337,0
1066,0.04264000000000001,4.99972120164681,0.3486538130977006,0.33698189426309944,0
1067,0.04268000000000005,5.000707572102282,0.3440507537354086,0.3324880650418014,0
1068,0.04272000000000009,5.000049991798719,0.35062655283115324,0.3391731897538894,0
1069,0.04275999999999991,4.99972120164681,0.34437954368912554,0.3330356006223855,0
1070,0.04279999999999995,4.99972120164681,0.3440507537354086,0.3328163239913253,0
1071,0.04283999999999999,5.000049991798719,0.3387901144912822,0.32766529029907315,0
1072,0.04288000000000003,4.99972120164681,0.33583100492916795,0.3248158774342769,0
1073,0.04292000000000007,5.000049991798719,0.32761125619361986,0.3167059154568684,0
1074,0.04296000000000011,5.000049991798719,0.3256385165076316,0.3148430515043801,0
1075,0.04299999999999993,4.999392411494816,0.3249809366132103,0.31429543523252934,0
1076,0.04303999999999997,5.000378781950543,0.326296096402507,0.31572064544635803,0
1077,0.04308000000000001,5.000049991798719,0.3200490874195386,0.3095837726019638,0
1078,0.04312000000000005,5.000378781950543,0.31577481813906216,0.305419724085384,0
1079,0.04316000000000009,5.000049991798719,0.3154460281952075,0.30520123844123803,0
1080,0.043199999999999905,5.000049991798719,0.30623990981359966,0.2961055068048599,0
1081,0.043239999999999945,5.000049991798719,0.3006504808399193,0.29062654593086834,0
1082,0.043279999999999985,4.99972120164681,0.296047421709989,0.28613403516326275,0
1083,0.043320000000000025,5.000049991798719,0.296047421709989,0.2862446626956491,0
1084,0.043360000000000065,5.000378781950543,0.2953898418361205,0.2856977884309128,0
1085,0.043400000000000105,5.000378781950543,0.28684130351766657,0.27726003270428967,0
1086,0.04343999999999992,5.000049991798719,0.2848685639167647,0.27539815158314807,0
1087,0.04347999999999996,5.000049991798719,0.2766488156243746,0.2672893365629669,0
1088,0.04352,5.000049991798719,0.2746760760449453,0.26542760395201237,0
1089,0.04356000000000004,4.999063621342738,0.2690866472591922,0.2599492547341252,0
1090,0.04360000000000008,4.999063621342738,0.2674426976226972,0.2584164561673301,0
1091,0.0436399999999999,4.99972120164681,0.2628396386559461,0.25392461867388333,0
1092,0.04367999999999994,4.999392411494816,0.26251084873062064,0.2537071195265744,0
1093,0.04371999999999998,4.999392411494816,0.256263840171535,0.2475714699506728,0
1094,0.04376000000000002,5.000049991798719,0.25166078126016367,0.243079837127466,0
1095,0.04380000000000006,5.000707572102282,0.24837288205175478,0.23990343001138303,0
1096,0.0438400000000001,4.999392411494816,0.243769823179611,0.23541192813428605,0
1097,0.04387999999999992,5.000049991798719,0.2447561929359981,0.23650991868638868,0
1098,0.04391999999999996,5.000378781950543,0.24508498285502775,0.23695039209914898,0
1099,0.04396,5.000378781950543,0.2388379744134798,0.23081512874610194,0
1100,0.04400000000000004,4.99972120164681,0.2371940248306282,0.22928298474269637,0
1101,0.04404000000000008,5.000378781950543,0.23357733575867895,0.22577816063674233,0
1102,0.0440799999999999,4.999392411494816,0.22831669713394426,0.22062944525959627,0
1103,0.04411999999999994,4.999392411494816,0.2217408988953935,0.21416562744472134,0
1104,0.04415999999999998,4.999392411494816,0.2187817897034312,0.21131855474647632,0
1105,0.04420000000000002,5.000378781950543,0.22305605853933289,0.21570491503956135,0
1106,0.04424000000000006,5.000378781950543,0.21253478144070864,0.20529578325449271,0
1107,0.0442800000000001,5.000378781950543,0.2105620419981934,0.2034352418743027,0
1108,0.044319999999999915,5.000049991798719,0.20661656312595558,0.19960201270505865,0
1109,0.044359999999999955,4.99972120164681,0.19938318523788956,0.19248093505206507,0
1110,0.044399999999999995,5.000049991798719,0.19182101750735198,0.1850311169796109,0
1111,0.044440000000000035,5.000049991798719,0.19017706800905274,0.18349956545286983,0
1112,0.044480000000000075,5.000707572102282,0.19017706800905274,0.1836120106279085,0
1113,0.044520000000000115,5.000049991798719,0.19050585790847407,0.18405329179540655,0
1114,0.04455999999999993,4.999063621342738,0.18327248014878164,0.17693245028594867,0
1115,0.04459999999999997,4.99972120164681,0.17834063170943854,0.1721131819676904,0
1116,0.04464000000000001,5.000378781950543,0.17242241361780836,0.16630758675627036,0
1117,0.04468000000000005,5.000378781950543,0.173408783297048,0.16740662096271355,0
1118,0.04472000000000009,4.99972120164681,0.16650419556507132,0.16061473829240572,0
1119,0.04475999999999991,5.000378781950543,0.16716177534678558,0.16138506255733986,0
1120,0.04479999999999995,4.99972120164681,0.16321629666371967,0.15755236666575503,0
1121,0.04483999999999999,5.000378781950543,0.15894202810996905,0.1533909180980919,0
1122,0.04488000000000003,5.000378781950543,0.1566404988971596,0.151202244951967,0
1123,0.04492000000000007,4.99972120164681,0.15137986071867066,0.14605449780640614,0
1124,0.04496000000000011,4.99972120164681,0.14842075175687197,0.14320831372909257,0
1125,0.04499999999999993,5.000049991798719,0.14283132374468102,0.13773184333793456,0
1126,0.04503999999999997,5.000049991798719,0.13954342493035102,0.13455693376586372,0
1127,0.04508000000000001,4.99972120164681,0.14348890350900304,0.13861543209237784,0
1128,0.04512000000000005,4.99972120164681,0.14118737433599896,0.13642695205692384,0
1129,0.04516000000000009,5.000049991798719,0.1355979463691857,0.13095060150115304,0
1130,0.04519999999999991,4.99972120164681,0.13231004758158987,0.12777580728162566,0
1131,0.04523999999999995,5.000049991798719,0.12836456905254606,0.12394345936094983,0
1132,0.04527999999999999,4.999392411494816,0.12672061967062423,0.1224126655107193,0
1133,0.04532000000000003,4.99972120164681,0.1181720829338278,0.11397730811172249,0
1134,0.04536000000000007,4.998734831190575,0.11751450318826591,0.11343293039262531,0
1135,0.04540000000000011,5.000378781950543,0.12113119179491064,0.11716284259673859,0
1136,0.045439999999999925,4.999392411494816,0.12047361204714746,0.11661850689957856,0
1137,0.045479999999999965,5.001365152405508,0.11488418421091426,0.11114234244901589,0
1138,0.045520000000000005,4.99972120164681,0.10929475641007817,0.10566619625066273,0
1139,0.045560000000000045,4.998406041038327,0.10403411851227598,0.10051885705372363,0
1140,0.045600000000000085,4.998406041038327,0.10633564758869515,0.10293370081078701,0
1141,0.0456399999999999,4.999063621342738,0.09285526308401794,0.08956664584777935,0
1142,0.04567999999999994,5.003009103162085,0.10765080706363755,0.10447553311119176,0
1143,0.04571999999999998,4.999063621342738,0.09910227051166931,0.09604035246610229,0
1144,0.04576000000000002,5.000378781950543,0.09482800226688862,0.09187945163212413,0
1145,0.04580000000000006,5.000378781950543,0.09351284281114798,0.09067766997183413,0
1146,0.0458400000000001,4.999392411494816,0.09088252390559022,0.0881607381269961,0
1147,0.04587999999999992,4.99972120164681,0.08562188611819377,0.0830134955461169,0
1148,0.04591999999999996,5.000049991798719,0.08233398751715135,0.07983899917783552,0
1149,0.04596,4.999392411494816,0.0813476179392533,0.07896603773931682,0
1150,0.04600000000000004,5.000049991798719,0.07805971935431567,0.07579155208069033,0
1151,0.04604000000000008,4.99972120164681,0.07542940049529606,0.07327464981517712,0
1152,0.0460799999999999,5.000378781950543,0.07510061063847716,0.07305927909928392,0
1153,0.04611999999999994,5.000378781950543,0.06983997294627126,0.06791206197561855,0
1154,0.04615999999999998,4.99972120164681,0.06523691499171154,0.0634224248973917,0
1155,0.04620000000000002,5.000707572102282,0.06030506721035353,0.05860399718032855,0
1156,0.04624000000000006,4.999392411494816,0.05898990780673173,0.05740225590913689,0
1157,0.0462800000000001,5.000049991798719,0.05898990780673173,0.05751567098988963,0
1158,0.04631999999999992,5.000378781950543,0.05471563975876172,0.05335481385120677,0
1159,0.04635999999999996,5.000049991798719,0.052085320970511856,0.05083790068102545,0
1160,0.0464,4.99972120164681,0.04945500219027131,0.048320981107927485,0
1161,0.04644000000000004,5.000049991798719,0.04682468341804723,0.04580405401227006,0
1162,0.04648000000000008,4.99972120164681,0.04222162558596615,0.04131437920659736,0
1163,0.046519999999999895,5.000049991798719,0.03893372714954513,0.03813985402692255,0
1164,0.046559999999999935,5.000049991798719,0.04090646620989019,0.04022595545493729,0
1165,0.046599999999999975,5.000378781950543,0.03696098809372539,0.03639382769805111,0
1166,0.046640000000000015,5.000378781950543,0.033015509995673945,0.03256168683168331,0
1167,0.046680000000000055,5.000378781950543,0.03400187951848738,0.033661379339503084,0
1168,0.046720000000000095,4.99972120164681,0.028741242076586612,0.02851404951698111,0
1169,0.04675999999999991,5.000378781950543,0.028083662398618273,0.027969760973956204,0
1170,0.04679999999999995,5.000707572102282,0.024466974178816228,0.02446634628600769,0
1171,0.04683999999999999,4.99972120164681,0.024138184341410046,0.024250811258874683,0
1172,0.04688000000000003,4.999392411494816,0.024466974178816228,0.024692836066658452,0
1173,0.04692000000000007,5.000707572102282,0.021507865646709548,0.021846941546904863,0
1174,0.04696000000000011,5.000378781950543,0.016904807950460177,0.01735707578705198,0
1175,0.04699999999999993,5.000049991798719,0.015918438447348998,0.01648387502665588,0
1176,0.04703999999999997,5.000049991798719,0.011644170613713423,0.012322751624547157,0
1177,0.04708000000000001,5.000049991798719,0.009671431620803153,0.010463131634697698,0
1178,0.04712000000000005,4.99972120164681,0.007041112970698912,0.007945905442150236,0
1179,0.04716000000000009,5.000049991798719,0.009671431620803153,0.010689288887520076,0
1180,0.04719999999999991,5.000049991798719,0.004410794328726292,0.005541687611891999,0
1181,0.04723999999999995,5.000378781950543,0.004082004499051814,0.005325903903596163,0
1182,0.04727999999999999,4.99972120164681,0.001122896037706475,0.002479770552589078,0
1183,0.04732000000000003,5.000049991798719,-0.005781690331979852,-0.004311872833475894,0
1184,0.04736000000000007,4.99972120164681,-0.009727168232258263,-0.008144440992222557,0
1185,0.04740000000000011,5.000049991798719,-0.0090695885834889,-0.007373985959069518,0
1186,0.04743999999999993,4.999392411494816,-0.010713537704454032,-0.008905095167532961,0
1187,0.04747999999999997,5.000378781950543,-0.0116999071754995,-0.009778661312356718,0
1188,0.04752000000000001,5.000378781950543,-0.013343856291351444,-0.011309844802318836,0
1189,0.04756000000000005,5.000049991798719,-0.014659015581730453,-0.01251227728083465,0
1190,0.04760000000000009,4.999392411494816,-0.017618123977595282,-0.015358698792189429,0
1191,0.047639999999999905,4.999392411494816,-0.021563601822605624,-0.019191530792990186,0
1192,0.047679999999999945,5.000707572102282,-0.021234812002893247,-0.018750137281925927,0
1193,0.047719999999999985,5.000049991798719,-0.019590862902407788,-0.016993627755102436,0
1194,0.047760000000000025,5.000049991798719,-0.01860449344057817,-0.01589474224369239,0
1195,0.047800000000000065,5.000378781950543,-0.020577232363083744,-0.017755010604695587,0
1196,0.047840000000000105,5.000707572102282,-0.021234812002893247,-0.018300166281966734,0
1197,0.04787999999999992,5.000378781950543,-0.021892391642189743,-0.018845369668129525,0
1198,0.04791999999999996,5.000378781950543,-0.023536340738185738,-0.020376991330380234,0
1199,0.04796,4.99972120164681,-0.021892391642189743,-0.018620764729543215,0
1200,0.04800000000000004,5.000378781950543,-0.024193920375685754,-0.020810066996139964,0
1201,0.04804000000000008,5.000378781950543,-0.024522710194243194,-0.021026682494288018,0
1202,0.0480799999999999,4.999392411494816,-0.026166659285104213,-0.022558510519277514,0
1203,0.04811999999999994,5.000378781950543,-0.028796977823800904,-0.025076762354177468,0
1204,0.04815999999999998,4.99972120164681,-0.030769716722423582,-0.02693749001809323,0
1205,0.04820000000000002,5.000707572102282,-0.03044092690630805,-0.02649674554284323,0
1206,0.04824000000000006,5.000378781950543,-0.03274245561641449,-0.028686377275326747,0
1207,0.0482800000000001,5.000049991798719,-0.0383318824575425,-0.034163965925728235,0
1208,0.04831999999999992,5.000049991798719,-0.04359251945043667,-0.039312824619611664,0
1209,0.04835999999999996,5.000049991798719,-0.04359251945043667,-0.03920110731655954,0
1210,0.0484,5.000049991798719,-0.044907678693494255,-0.040404611356178566,0
1211,0.04844000000000004,5.000049991798719,-0.04786678698281073,-0.04325212764472608,0
1212,0.04848000000000008,5.000049991798719,-0.05148347487774181,-0.046757287844004014,0
1213,0.0485199999999999,4.99972120164681,-0.05378500352999273,-0.048947354207542704,0
1214,0.04855999999999994,5.000378781950543,-0.05805927101017365,-0.05311022590714598,0
1215,0.04859999999999998,5.000378781950543,-0.054771372950441696,-0.049710999675521755,0
1216,0.04864000000000002,4.99972120164681,-0.05444258314375501,-0.049270950405525704,0
1217,0.04868000000000006,5.000378781950543,-0.05608653217589139,-0.050803709782168666,0
1218,0.0487200000000001,5.000378781950543,-0.056415321981929514,-0.05102138083908753,0
1219,0.048759999999999915,5.000049991798719,-0.05674411178783788,-0.05123912390012311,0
1220,0.048799999999999955,5.000049991798719,-0.06036079964426265,-0.054744838113097605,0
1221,0.048839999999999995,5.000378781950543,-0.06430627728788789,-0.05857941631116351,0
1222,0.048880000000000035,5.000378781950543,-0.06956691411691203,-0.06372922898826971,0
1223,0.048920000000000075,4.99972120164681,-0.06562143649826817,-0.0596730036063709,0
1224,0.048960000000000115,5.000378781950543,-0.06956691411691203,-0.06350781094470487,0
1225,0.04899999999999993,5.000049991798719,-0.07055328351864205,-0.0643835886426018,0
1226,0.04903999999999997,5.000707572102282,-0.07811544889290346,-0.0718352419822775,0
1227,0.04908000000000001,5.000049991798719,-0.08107455706402487,-0.07468391888005937,0
1228,0.04912000000000005,5.000378781950543,-0.0840336652245519,-0.07753267761970928,0
1229,0.04916000000000009,4.99972120164681,-0.08699277337447438,-0.08038151929163972,0
1230,0.04919999999999991,5.000049991798719,-0.08765035296190492,-0.08092891643358185,0
1231,0.04923999999999995,5.000378781950543,-0.0820609264520449,-0.07522939259954045,0
1232,0.04927999999999999,5.000049991798719,-0.08929430192818714,-0.08235275696078609,0
1233,0.04932000000000003,5.000049991798719,-0.08995188151378213,-0.08290041272791063,0
1234,0.04936000000000007,5.000049991798719,-0.09521251817964406,-0.08805121395802201,0
1235,0.04940000000000011,5.000049991798719,-0.09619888755075014,-0.08892783736153326,0
1236,0.04943999999999993,4.99972120164681,-0.10145952417666172,-0.0940788185725728,0
1237,0.04947999999999997,4.999392411494816,-0.09850041607873007,-0.0910101466961796,0
1238,0.04952000000000001,5.000707572102282,-0.09652767734085597,-0.08892793689905223,0
1239,0.04956000000000005,4.99972120164681,-0.09882920586791545,-0.09112008816796396,0
1240,0.04960000000000009,4.99972120164681,-0.09422614880735543,-0.08640774873134724,0
1241,0.049639999999999906,4.99972120164681,-0.09882920586791545,-0.09090161937800459,0
1242,0.049679999999999946,5.000378781950543,-0.0971852569206733,-0.08914858105814394,0
1243,0.049719999999999986,5.000049991798719,-0.09784283649996468,-0.0896971693842871,0
1244,0.049760000000000026,4.99972120164681,-0.09685646713083039,-0.08860190795870629,0
1245,0.049800000000000066,5.000378781950543,-0.09323977943388458,-0.084876428478282,0
1246,0.049840000000000106,5.000378781950543,-0.09389735901632983,-0.08542531762550742,0
1247,0.049879999999999924,5.000049991798719,-0.09356856922517286,-0.08498793982169314,0
1248,0.049919999999999964,4.99972120164681,-0.09455493859824966,-0.0858658246779814,0
1249,0.049960000000000004,5.000049991798719,-0.09554130797014417,-0.0867438141012539,0
1250,0.050000000000000044,5.000378781950543,-0.09784283649996468,-0.08893706832189827,0
1251,0.050040000000000084,4.99972120164681,-0.09389735901632983,-0.08488342323878267,0
1252,0.0500799999999999,5.000378781950543,-0.09291098964246501,-0.08378899404434215,0
1253,0.05011999999999994,5.000049991798719,-0.09159583047547391,-0.08236588390383917,0
1254,0.05015999999999998,5.000049991798719,-0.09093825089119083,-0.08160046326020501,0
1255,0.05020000000000002,4.999063621342738,-0.09554130797014417,-0.08609579025999306,0
1256,0.05024000000000006,5.000378781950543,-0.09258219985091413,-0.08302906410672559,0
1257,0.0502800000000001,4.99972120164681,-0.09685646713083039,-0.08719582646158061,0
1258,0.05031999999999992,5.000049991798719,-0.09784283649996468,-0.08807480507737386,0
1259,0.05035999999999996,4.999392411494816,-0.09784283649996468,-0.08796752955738163,0
1260,0.0504,5.000049991798719,-0.09488372838901253,-0.08490126222028865,0
1261,0.05044000000000004,5.000378781950543,-0.0998155752346823,-0.08972606719303453,0
1262,0.05048000000000008,5.000707572102282,-0.10145952417666172,-0.09126309267352448,0
1263,0.0505199999999999,5.000378781950543,-0.10178831396466272,-0.0914850784685293,0
1264,0.05055999999999994,5.000049991798719,-0.10704895055476103,-0.09663903159001416,0
1265,0.05059999999999998,5.000049991798719,-0.10540500162397977,-0.09488852076971141,0
1266,0.05064000000000002,4.99972120164681,-0.10869289948224485,-0.0980699793710654,0
1267,0.05068000000000006,5.000049991798719,-0.10343226290269213,-0.09270302721952889,0
1268,0.0507200000000001,5.000049991798719,-0.10474742205074437,-0.0939119955316293,0
1269,0.050759999999999916,5.000378781950543,-0.10376105268990284,-0.09281956112074938,0
1270,0.050799999999999956,4.99972120164681,-0.10639137098284411,-0.09534394119821366,0
1271,0.050839999999999996,5.000378781950543,-0.10573379141039972,-0.09458055129225737,0
1272,0.050880000000000036,5.000378781950543,-0.10704895055476103,-0.09579002903122069,0
1273,0.050920000000000076,4.999392411494816,-0.10770653012615032,-0.09634205717020902,0
1274,0.050960000000000116,4.99972120164681,-0.10869289948224485,-0.09722300611050652,0
1275,0.050999999999999934,5.000049991798719,-0.10441863226392899,-0.09284345053531742,0
1276,0.051039999999999974,5.000378781950543,-0.10836410969701198,-0.09668377271147338,0
1277,0.051080000000000014,5.000049991798719,-0.10869289948224485,-0.09690754137943977,0
1278,0.051120000000000054,4.999063621342738,-0.10770653012615032,-0.09581628608413514,0
1279,0.051160000000000094,4.99972120164681,-0.11395353602801415,-0.10195854226191212,0
1280,0.05119999999999991,4.99972120164681,-0.12020054188215752,-0.10810093564281903,0
1281,0.05123999999999995,5.000378781950543,-0.11921417253994292,-0.1070100921125954,0
1282,0.05127999999999999,4.99972120164681,-0.11592627472395621,-0.10361785942684351,0
1283,0.05132000000000003,5.000378781950543,-0.11592627472395621,-0.10351366490696745,0
1284,0.05136000000000007,5.000049991798719,-0.11592627472395621,-0.10340961176724453,0
1285,0.05140000000000011,5.000049991798719,-0.11888538275893985,-0.10626480907153019,0
1286,0.05143999999999993,5.000378781950543,-0.1182278031965366,-0.10550346221492299,0
1287,0.05147999999999997,5.000049991798719,-0.12151570100325589,-0.10868773718998778,0
1288,0.05152000000000001,4.99972120164681,-0.12085812144297166,-0.10792668028522995,0
1289,0.05156000000000005,4.99972120164681,-0.12085812144297166,-0.10782334945113398,0
1290,0.05160000000000009,5.000049991798719,-0.12020054188215752,-0.10706258658835335,0
1291,0.05163999999999991,5.000049991798719,-0.12052933166263081,-0.10728834161928594,0
1292,0.05167999999999995,5.000378781950543,-0.12283086012223408,-0.1094869849006048,0
1293,0.05171999999999999,4.999392411494816,-0.12184449078319924,-0.10839788097189618,0
1294,0.05176000000000003,4.99972120164681,-0.12447480901797399,-0.11092561622147562,0
1295,0.05180000000000007,4.99972120164681,-0.12315964990164728,-0.10950802673880286,0
1296,0.05184000000000011,5.000049991798719,-0.126118757910398,-0.11236485801292034,0
1297,0.051879999999999926,4.99972120164681,-0.12480359879672413,-0.110947576807672,0
1298,0.051919999999999966,5.001036362253937,-0.12447480901797399,-0.11051682059022389,0
1299,0.051960000000000006,4.99972120164681,-0.1267763374664388,-0.1127165392611468,0
1300,0.052000000000000046,5.000049991798719,-0.12283086012223408,-0.10866940980728726,0
1301,0.052040000000000086,4.99972120164681,-0.126118757910398,-0.11185581415885551,0
1302,0.052079999999999904,5.000378781950543,-0.13072181479152978,-0.11635753728005341,0
1303,0.052119999999999944,4.99972120164681,-0.12842028635421754,-0.1139548357614921,0
1304,0.052159999999999984,5.000049991798719,-0.13072181479152978,-0.11615535279667255,0
1305,0.052200000000000024,4.99972120164681,-0.12874907613137498,-0.11408176541233553,0
1306,0.052240000000000064,4.99972120164681,-0.13006423523867633,-0.11529623947062595,0
1307,0.052280000000000104,4.99972120164681,-0.13203697389564184,-0.11716845774935292,0
1308,0.05231999999999992,4.999063621342738,-0.13466729209748313,-0.11969842123769808,0
1309,0.05235999999999996,4.99972120164681,-0.14025671824810987,-0.1251876593319001,0
1310,0.0524,4.999392411494816,-0.14288703642331374,-0.12771795709842843,0
1311,0.05244000000000004,5.000707572102282,-0.13598245119521052,-0.12071352009841481,0
1312,0.05248000000000008,4.99972120164681,-0.137297610290808,-0.1219289970462111,0
1313,0.0525199999999999,4.99972120164681,-0.13894155915730816,-0.12347343437468138,0
1314,0.05255999999999994,5.000049991798719,-0.13664003074327558,-0.1210725660163602,0
1315,0.05259999999999998,4.999392411494816,-0.137297610290808,-0.12163097819561332,0
1316,0.05264000000000002,4.999063621342738,-0.13959913870297558,-0.12383351279606666,0
1317,0.05268000000000006,4.99972120164681,-0.1392703489302085,-0.12340590374698365,0
1318,0.0527200000000001,4.99972120164681,-0.14485977504911357,-0.12889668610207156,0
1319,0.05275999999999992,5.000049991798719,-0.13894155915730816,-0.12288000293430557,0
1320,0.05279999999999996,5.000378781950543,-0.14124308756481152,-0.12508324152730954,0
1321,0.05284,5.000049991798719,-0.14222945688031302,-0.12597149946161446,0
1322,0.05288000000000004,5.000049991798719,-0.14321582619461398,-0.12685993679808988,0
1323,0.05292000000000008,4.999392411494816,-0.14354461596578083,-0.12709097496308708,0
1324,0.052959999999999896,5.000049991798719,-0.14321582619461398,-0.12666461492389797,0
1325,0.052999999999999936,4.99972120164681,-0.145188564819613,-0.12853996558371078,0
1326,0.053039999999999976,5.000378781950543,-0.14420219550771413,-0.1274563915723373,0
1327,0.053080000000000016,5.000049991798719,-0.14288703642331374,-0.12604421201522675,0
1328,0.053120000000000056,5.000049991798719,-0.14387340573681423,-0.12693374604200136,0
1329,0.053160000000000096,4.99972120164681,-0.14420219550771413,-0.12716588666953654,0
1330,0.053199999999999914,4.999392411494816,-0.14453098527848057,-0.12739821439582388,0
1331,0.053239999999999954,5.000049991798719,-0.148476462517262,-0.13124741764267395,0
1332,0.053279999999999994,5.000049991798719,-0.15044920112943688,-0.13312407126725542,0
1333,0.053320000000000034,4.99972120164681,-0.148805252286292,-0.1313842273907634,0
1334,0.053360000000000074,5.000378781950543,-0.1468325136701073,-0.1293157846434944,0
1335,0.053400000000000114,4.99972120164681,-0.14584614436021137,-0.12823390305089222,0
1336,0.05343999999999993,5.000049991798719,-0.14913404205518838,-0.13142648125574502,0
1337,0.05347999999999997,5.000378781950543,-0.148476462517262,-0.13067377596256013,0
1338,0.05352000000000001,5.000049991798719,-0.14979162159258003,-0.13189400395783885,0
1339,0.05356000000000005,5.000378781950543,-0.15340830903867092,-0.1354159559375232,0
1340,0.05360000000000009,5.001365152405508,-0.15603862717110994,-0.13795173515365255,0
1341,0.05363999999999991,5.000049991798719,-0.14420219550771413,-0.12602096205854887,0
1342,0.05367999999999995,4.999392411494816,-0.1481476727480983,-0.1298722962843631,0
1343,0.05371999999999999,4.997748460733576,-0.1471613034398055,-0.1287919833091957,0
1344,0.05376000000000003,4.999392411494816,-0.15307951927151348,-0.134616455750294,0
1345,0.05380000000000007,5.001036362253937,-0.14749009320937,-0.12893348750037775,0
1346,0.05384000000000011,4.998734831190575,-0.15538104763880373,-0.13673110186944087,0
1347,0.05387999999999993,5.004653053916539,-0.15669620670288015,-0.13795312392309744,0
1348,0.05391999999999997,4.998406041038327,-0.148476462517262,-0.12964044669753308,0
1349,0.05396000000000001,5.000378781950543,-0.15209314996923823,-0.13316440599852425,0
1350,0.05400000000000005,4.998406041038327,-0.15143557043371902,-0.13241430411742386,0
1351,0.05404000000000009,4.99972120164681,-0.1501204113610753,-0.13100682941899075,0
1352,0.054079999999999906,4.997748460733576,-0.14781888297880097,-0.1286131930430426,0
1353,0.054119999999999946,4.997419670581074,-0.1550522578724497,-0.13575466848538303,0
1354,0.054159999999999986,4.99972120164681,-0.15373709880569447,-0.1343478194178516,0
1355,0.054200000000000026,5.002351522859708,-0.15143557043371902,-0.1319548114017057,0
1356,0.054240000000000066,4.999392411494816,-0.14749009320937,-0.12791806579376355,0
1357,0.054280000000000106,5.000378781950543,-0.14485977504911357,-0.1251966914123515,0
1358,0.054319999999999924,4.99972120164681,-0.14781888297880097,-0.12806495618306024,0
1359,0.054359999999999964,5.000378781950543,-0.145188564819613,-0.12534400882467978,0
1360,0.054400000000000004,4.99972120164681,-0.148805252286292,-0.1288702819474219,0
1361,0.054440000000000044,5.000049991798719,-0.1517643602015455,-0.13173919126731473,0
1362,0.054480000000000084,4.99972120164681,-0.15472346810596177,-0.13460831721610886,0
1363,0.0545199999999999,5.000049991798719,-0.15242193973679719,-0.13221702442005562,0
1364,0.05455999999999994,5.000049991798719,-0.15110678066575872,-0.13081231933768056,0
1365,0.05459999999999998,4.99972120164681,-0.15603862717110994,-0.13565483913188028,0
1366,0.05464000000000002,4.999392411494816,-0.1550522578724497,-0.134579363304692,0
1367,0.05468000000000006,5.000049991798719,-0.15965531458921167,-0.13909353455578355,0
1368,0.0547200000000001,5.000049991798719,-0.16261442246467878,-0.14196397890645857,0
1369,0.05475999999999992,4.99972120164681,-0.16590232009133205,-0.1451634358249962,0
1370,0.05479999999999996,4.999063621342738,-0.1619568429377366,-0.14112974165352785,0
1371,0.05484,4.99972120164681,-0.16129926341025752,-0.1403841696697442,0
1372,0.05488000000000004,5.000049991798719,-0.16261442246467878,-0.14161156169850506,0
1373,0.05492000000000008,5.000049991798719,-0.1619568429377366,-0.14086644144336352,0
1374,0.0549599999999999,4.99972120164681,-0.16228563270127483,-0.14110791764071215,0
1375,0.05499999999999994,4.999063621342738,-0.16327200199108388,-0.1420072013886133,0
1376,0.05503999999999998,5.000378781950543,-0.16688868937670803,-0.14553703211659752,0
1377,0.05508000000000002,4.999392411494816,-0.16754626889961982,-0.14610798472382897,0
1378,0.05512000000000006,4.99972120164681,-0.1655735303292713,-0.1440488498351478,0
1379,0.0551600000000001,4.99972120164681,-0.16754626889961982,-0.1459354235375871,0
1380,0.055199999999999916,5.000378781950543,-0.17017658698588745,-0.14847980905712302,0
1381,0.055239999999999956,5.000378781950543,-0.1695190074651277,-0.14773653011923266,0
1382,0.055279999999999996,4.99972120164681,-0.16721747913823115,-0.1453495363708903,0
1383,0.055320000000000036,4.99972120164681,-0.1734644845816094,-0.15151131123224285,0
1384,0.055360000000000076,5.000378781950543,-0.17642359240624145,-0.1543854241556472,0
1385,0.055400000000000116,5.000378781950543,-0.1754372231325772,-0.15331429650056497,0
1386,0.055439999999999934,4.99972120164681,-0.17149174602579192,-0.1492842983688082,0
1387,0.055479999999999974,5.000378781950543,-0.17412206409913766,-0.15183033360788212,0
1388,0.055520000000000014,4.99972120164681,-0.1737932743404409,-0.15141750003747395,0
1389,0.055560000000000054,5.000049991798719,-0.1737932743404409,-0.15133369607778283,0
1390,0.055600000000000094,5.000378781950543,-0.1721493255449364,-0.14960618400165776,0
1391,0.05563999999999991,5.000378781950543,-0.16688868937670803,-0.14426222605651143,0
1392,0.05567999999999995,5.000707572102282,-0.1619568429377366,-0.1392473001665298,0
1393,0.05571999999999999,4.99972120164681,-0.15275072950422225,-0.12995835042768292,0
1394,0.05576000000000003,5.000378781950543,-0.14946283182395104,-0.12658786040508274,0
1395,0.05580000000000007,5.000378781950543,-0.14190066710861254,-0.11894334812529209,0
1396,0.05584000000000011,5.000049991798719,-0.13894155915730816,-0.11590213819982466,0
1397,0.05587999999999993,5.000378781950543,-0.13039302501516953,-0.10727174848375481,0
