,seconds,Trig,EMG_amplitude,EMG_amplitude_filter,peaks
0,0.0,5.000049991798719,0.07477182078178243,0.03196910822614191,0
1,4.0000000000040004e-05,5.000378781950543,0.05537321945707481,0.012701907357913142,0
2,8.000000000008001e-05,5.000378781950543,0.03827614746376892,-0.004263770648068328,0
3,0.00011999999999989797,5.000378781950543,0.03860493730659416,-0.003803593966828313,0
4,0.00015999999999993797,5.000378781950543,0.043865574808886185,0.0015884225447801853,0
5,0.00019999999999997797,5.000378781950543,0.04616710372624461,0.004021321961739745,0
6,0.00024000000000001798,5.001036362253937,0.045180734189481195,0.0031663137338219793,0
7,0.000280000000000058,5.000378781950543,0.04879742249646346,0.006914353477436491,0
8,0.000320000000000098,5.000049991798719,0.051098951426982675,0.009347223290504116,0
9,0.00035999999999991594,5.000049991798719,0.050112581884580176,0.008492183394288387,0
10,0.00039999999999995595,5.000378781950543,0.04846863264974746,0.0069795518866008835,0
11,0.00043999999999999595,5.000378781950543,0.04781105295669137,0.006453277318571669,0
12,0.00048000000000003595,5.000378781950543,0.04879742249646346,0.007570938697783899,0
13,0.000520000000000076,5.000049991798719,0.050770161579389975,0.009674955650709062,0
14,0.0005599999999998939,4.99972120164681,0.05307169051516736,0.012107747802807788,0
15,0.0005999999999999339,5.000378781950543,0.054058060060948765,0.013225365226621641,0
16,0.0006399999999999739,5.000049991798719,0.05438684990979273,0.013685386930227098,0
17,0.0006800000000000139,5.000707572102282,0.054058060060948765,0.013487812227526423,0
18,0.0007200000000000539,5.000707572102282,0.05340048036363608,0.012961430282031713,0
19,0.0007600000000000939,5.001036362253937,0.05307169051516736,0.01276382010499396,0
20,0.0007999999999999119,5.000049991798719,0.052085320970511856,0.011908611464971582,0
21,0.0008399999999999519,5.000049991798719,0.051098951426982675,0.011053383372522964,0
22,0.0008799999999999919,5.000049991798719,0.050770161579389975,0.010855714835365071,0
23,0.0009200000000000319,4.99972120164681,0.04978379203736312,0.010000445775700875,0
24,0.0009600000000000719,5.000378781950543,0.048139842803156765,0.008487575508030837,0
25,0.001000000000000112,5.000707572102282,0.045180734189481195,0.005659523656988678,0
26,0.0010399999999999299,5.000049991798719,0.04189283574175878,0.002502659079603238,0
27,0.0010799999999999699,5.000378781950543,0.03893372714954513,-0.00032543922327494396,0
28,0.0011200000000000099,5.000049991798719,0.03465945920099257,-0.004468721152504684,0
29,0.0011600000000000499,4.99972120164681,0.0313715607935042,-0.007625658499994678,0
30,0.0012000000000000899,5.000707572102282,0.027097292882612076,-0.011768990999819783,0
31,0.0012399999999999078,4.99972120164681,0.02315181482994949,-0.015583559980243362,0
32,0.0012799999999999478,5.000378781950543,0.021507865646709548,-0.01709662712025317,0
33,0.0013199999999999878,5.000049991798719,0.01953512663099438,-0.018938511812206668,0
34,0.0013600000000000279,5.000378781950543,0.018877546960101396,-0.019465265569539307,0
35,0.0014000000000000679,5.000378781950543,0.018877546960101396,-0.019334468757180756,0
36,0.0014400000000001079,5.000378781950543,0.02019270630239349,-0.017888542394994524,0
37,0.0014799999999999258,5.000707572102282,0.021507865646709548,-0.016442646514768088,0
38,0.0015199999999999658,5.000049991798719,0.02315181482994949,-0.014667991971371995,0
39,0.0015600000000000058,5.000378781950543,0.024466974178816228,-0.013222159130119385,0
40,0.0016000000000000458,5.000378781950543,0.0264397132059056,-0.011118779170670397,0
41,0.0016400000000000858,5.000049991798719,0.0264397132059056,-0.01098817149082753,0
42,0.0016799999999999038,4.99972120164681,0.027426082721154613,-0.009871228240971912,0
43,0.0017199999999999438,4.99972120164681,0.029070031915759978,-0.008096739949939244,0
44,0.0017599999999999838,5.000049991798719,0.029070031915759978,-0.007966236184852295,0
45,0.0018000000000000238,5.000049991798719,0.030385191273714543,-0.006520609086524624,0
46,0.0018400000000000638,4.99972120164681,0.03202914047399413,-0.00474622886416607,0
47,0.0018800000000001038,5.000378781950543,0.03268672015498804,-0.003958255573168909,0
48,0.0019199999999999218,5.000378781950543,0.033673089677423634,-0.002841530546782975,0
49,0.0019599999999999618,5.000049991798719,0.03334429983648583,-0.003040003683990572,0
50,0.0020000000000000018,4.99972120164681,0.03400187951848738,-0.002252146792830527,0
51,0.0020400000000000418,5.000378781950543,0.033673089677423634,-0.0024506996138377174,0
52,0.002080000000000082,4.99972120164681,0.03400187951848738,-0.0019917136365227364,0
53,0.0021199999999998997,4.99972120164681,0.03334429983648583,-0.002519138760949155,0
54,0.0021599999999999397,5.000049991798719,0.033015509995673945,-0.0027178163178946044,0
55,0.0021999999999999797,5.000049991798719,0.031700350633686175,-0.003902906364913264,0
56,0.0022400000000000198,5.000049991798719,0.031042770953448276,-0.004430460394418509,0
57,0.0022800000000000598,5.000707572102282,0.03202914047399413,-0.0033141095828604084,0
58,0.0023200000000000998,4.99972120164681,0.033015509995673945,-0.0021978038255118446,0
59,0.0023599999999999177,5.000049991798719,0.0323579303144281,-0.0027254930221889476,0
60,0.0023999999999999577,5.000378781950543,0.03268672015498804,-0.00226685914404455,0
61,0.0024399999999999977,4.99972120164681,0.0323579303144281,-0.002465852090010625,0
62,0.0024800000000000377,5.000378781950543,0.03400187951848738,-0.0006921538304707556,0
63,0.0025200000000000777,5.000049991798719,0.03268672015498804,-0.0018776126738360224,0
64,0.0025599999999998957,5.000378781950543,0.03268672015498804,-0.0017479613853866177,0
65,0.0025999999999999357,5.000707572102282,0.031700350633686175,-0.002604729546360908,0
66,0.0026399999999999757,5.000707572102282,0.03202914047399413,-0.0021463889703776384,0
67,0.0026800000000000157,4.99972120164681,0.0323579303144281,-0.0016880997155385817,0
68,0.0027200000000000557,5.000049991798719,0.031700350633686175,-0.0022162319998453757,0
69,0.0027600000000000957,5.000049991798719,0.030385191273714543,-0.0034019966781275654,0
70,0.0027999999999999137,5.000049991798719,0.031700350633686175,-0.0019574960480581716,0
71,0.0028399999999999537,4.99972120164681,0.031042770953448276,-0.0024857885667003594,0
72,0.0028799999999999937,4.99972120164681,0.031700350633686175,-0.0016989765303378167,0
73,0.0029200000000000337,5.000049991798719,0.030713981113518377,-0.0025561691968738615,0
74,0.0029600000000000737,4.99972120164681,0.030056401434036775,-0.0030846282222854703,0
75,0.0029999999999998916,5.001036362253937,0.031042770953448276,-0.0019691949454758682,0
76,0.0030399999999999316,5.000707572102282,0.031700350633686175,-0.0011826091016572705,0
77,0.0030799999999999716,4.999392411494816,0.031042770953448276,-0.001711240909307011,0
78,0.0031200000000000117,5.000049991798719,0.029727611594485073,-0.0028975113838734835,0
79,0.0031600000000000517,5.000378781950543,0.029398821755059465,-0.003097472024310585,0
80,0.0032000000000000917,4.99972120164681,0.030385191273714543,-0.0019823336893040992,0
81,0.0032399999999999096,4.99972120164681,0.030713981113518377,-0.0015248361130210941,0
82,0.0032799999999999496,4.99972120164681,0.030385191273714543,-0.0017249799934535466,0
83,0.0033199999999999896,5.000378781950543,0.031042770953448276,-0.0009388168286863924,0
84,0.0033600000000000296,5.000707572102282,0.029398821755059465,-0.002454245713598653,0
85,0.0034000000000000696,5.000378781950543,0.027426082721154613,-0.0042985283027856536,0
86,0.0034400000000001096,5.000378781950543,0.026110923367741706,-0.005485295777418318,0
87,0.0034799999999999276,4.99972120164681,0.024795764016348754,-0.006672128513118686,0
88,0.0035199999999999676,5.000049991798719,0.025124553854007567,-0.006215078019970316,0
89,0.0035600000000000076,5.000378781950543,0.025782133529704057,-0.005429304346062022,0
90,0.0036000000000000476,5.000049991798719,0.0264397132059056,-0.00464359802595465,0
91,0.0036400000000000876,5.000049991798719,0.028412452237539368,-0.0025428004016968785,0
92,0.0036799999999999056,4.99972120164681,0.027426082721154613,-0.0034011800736569245,0
93,0.0037199999999999456,5.000049991798719,0.025453343691792682,-0.005245998703646629,0
94,0.0037599999999999856,5.000378781950543,0.025782133529704057,-0.0047893586081984955,0
95,0.0038000000000000256,4.999392411494816,0.026110923367741706,-0.004332789351166422,0
96,0.0038400000000000656,5.000049991798719,0.027097292882612076,-0.003218711952468773,0
97,0.0038800000000001056,5.001036362253937,0.027426082721154613,-0.002762286461802904,0
98,0.0039199999999999235,4.99972120164681,0.02676850304419573,-0.003292303414785234,0
99,0.0039599999999999635,5.000049991798719,0.027754872559823354,-0.0021784447996707063,0
100,0.0040000000000000036,4.999063621342738,0.028412452237539368,-0.0013934503431944113,0
101,0.0040400000000000436,5.001036362253937,0.028083662398618273,-0.0015949004202069801,0
102,0.0040800000000000836,5.000378781950543,0.030385191273714543,0.0008338925039387199,0
103,0.0041199999999999015,5.000378781950543,0.029727611594485073,0.00030350046501601,0
104,0.0041599999999999415,5.000378781950543,0.030713981113518377,0.0014169805198595564,0
105,0.0041999999999999815,4.99972120164681,0.0323579303144281,0.003187962456464865,0
106,0.0042400000000000215,5.000707572102282,0.03334429983648583,0.004301286218626998,0
107,0.0042800000000000615,5.000049991798719,0.033015509995673945,0.0040993714269994385,0
108,0.0043200000000001015,4.99972120164681,0.034988249042434,0.006198905636848493,0
109,0.0043599999999999195,5.000049991798719,0.0353170388840013,0.006654410060393868,0
110,0.0043999999999999595,4.99972120164681,0.03465945920099257,0.006123463683402381,0
111,0.0044399999999999995,5.000049991798719,0.03597461856751347,0.007565174385301465,0
112,0.0044800000000000395,5.001036362253937,0.03465945920099257,0.006376483689019219,0
113,0.0045200000000000795,4.998077250885994,0.033015509995673945,0.004858919794482922,0
114,0.0045599999999998975,4.998734831190575,0.033673089677423634,0.005642800733431673,0
115,0.0045999999999999375,5.000707572102282,0.030385191273714543,0.002481118839407267,0
116,0.0046399999999999775,5.000049991798719,0.033015509995673945,0.005237568629807714,0
117,0.0046800000000000175,5.001036362253937,0.030385191273714543,0.00273329484152437,0
118,0.0047200000000000575,5.000049991798719,0.030385191273714543,0.0028592529471279937,0
119,0.0047600000000000975,5.000049991798719,0.031042770953448276,0.0036427032113055535,0
120,0.0047999999999999154,4.99972120164681,0.03663219825152894,0.009357912879809032,0
121,0.0048399999999999554,5.000378781950543,0.029727611594485073,0.002579019686537943,0
122,0.0048799999999999955,5.000049991798719,0.031042770953448276,0.004019782910233059,0
123,0.0049200000000000355,5.000378781950543,0.03202914047399413,0.005131666004323446,0
124,0.0049600000000000755,5.000049991798719,0.0323579303144281,0.0055858784352183655,0
125,0.004999999999999893,5.000049991798719,0.0323579303144281,0.0057112093509559154,0
126,0.005039999999999933,5.000378781950543,0.033015509995673945,0.006494027581838522,0
127,0.005079999999999973,5.000378781950543,0.033673089677423634,0.007276752756015333,0
128,0.005120000000000013,5.000049991798719,0.0323579303144281,0.006086645137403012,0
129,0.005160000000000053,5.000049991798719,0.03433066935967702,0.008184341488437611,0
130,0.0052000000000000934,4.99972120164681,0.03564582872569445,0.009624363031376362,0
131,0.005239999999999911,5.000378781950543,0.034988249042434,0.009091549706198836,0
132,0.005279999999999951,5.000378781950543,0.03597461856751347,0.010202589080847702,0
133,0.005319999999999991,5.000049991798719,0.037618567778495635,0.011971110943515627,0
134,0.005360000000000031,5.000049991798719,0.03893372714954513,0.013410745079308253,0
135,0.005400000000000071,5.000378781950543,0.0392625169926218,0.013863911111443684,0
136,0.005440000000000111,5.000378781950543,0.04090646620989019,0.015632137253668063,0
137,0.005479999999999929,5.000378781950543,0.04287920527475757,0.01772905329129979,0
138,0.005519999999999969,5.000378781950543,0.04419436465384674,0.019168289003208407,0
139,0.005560000000000009,5.000378781950543,0.046495893572083224,0.021593792926907843,0
140,0.005600000000000049,5.000378781950543,0.04912621234330475,0.024347984689172097,0
141,0.005640000000000089,5.000049991798719,0.052085320970511856,0.0274308636062919,0
142,0.005679999999999907,5.000378781950543,0.05372927021222988,0.02919847975044279,0
143,0.005719999999999947,4.99972120164681,0.056688378855200935,0.03228115122238333,0
144,0.005759999999999987,5.000049991798719,0.05603079915588792,0.031747029592965166,0
145,0.005800000000000027,5.000049991798719,0.05866111795613836,0.034500701018803065,0
146,0.005840000000000067,5.000707572102282,0.05800353825532628,0.033966367814422846,0
147,0.005880000000000107,5.001036362253937,0.05800353825532628,0.03408950749724152,0
148,0.005919999999999925,5.000378781950543,0.05701716870504489,0.033226170132104764,0
149,0.005959999999999965,4.99972120164681,0.05570200930641887,0.032033934737291346,0
150,0.006000000000000005,5.000049991798719,0.05274290066682373,0.029197641236927797,0
151,0.006040000000000045,5.000049991798719,0.050770161579389975,0.027347607741310804,0
152,0.006080000000000085,5.000049991798719,0.04748226311035131,0.02418230463426166,0
153,0.006119999999999903,5.000707572102282,0.04616710372624461,0.022989629700332317,0
154,0.006159999999999943,4.99972120164681,0.04255041543029908,0.019495314261200748,0
155,0.006199999999999983,5.000049991798719,0.04090646620989019,0.01797362562313095,0
156,0.006240000000000023,5.000049991798719,0.03827614746376892,0.015465454504208406,0
157,0.006280000000000063,5.000378781950543,0.036303408409458296,0.013614749441742732,0
158,0.006320000000000103,4.99972120164681,0.034988249042434,0.012421509751454497,0
159,0.006359999999999921,5.000049991798719,0.033673089677423634,0.011228155068780572,0
160,0.006399999999999961,4.99972120164681,0.0323579303144281,0.010034684714901742,0
161,0.006440000000000001,5.000049991798719,0.029727611594485073,0.007525938652512322,0
162,0.006480000000000041,5.000049991798719,0.028741242076586612,0.00666102476274395,0
163,0.006520000000000081,4.99972120164681,0.028412452237539368,0.006453572845031952,0
164,0.006559999999999899,5.000378781950543,0.029070031915759978,0.007232372060916908,0
165,0.006599999999999939,5.000378781950543,0.028083662398618273,0.0063671030213940044,0
166,0.006639999999999979,5.000378781950543,0.0264397132059056,0.004844134570387582,0
167,0.006680000000000019,5.000707572102282,0.027097292882612076,0.005622574577534499,0
168,0.006720000000000059,4.99972120164681,0.025453343691792682,0.004099364631056468,0
169,0.006760000000000099,5.000049991798719,0.023809394504130166,0.0025760329273290423,0
170,0.006799999999999917,4.99972120164681,0.024466974178816228,0.0033541076517690166,0
171,0.006839999999999957,5.000049991798719,0.022823024993048696,0.0018305304083377927,0
172,0.006879999999999997,5.000378781950543,0.022823024993048696,0.0019507785705647467,0
173,0.006920000000000037,5.000049991798719,0.021507865646709548,0.0007557429342023234,0
174,0.006960000000000077,4.99972120164681,0.02216544531962629,0.0015333211932617285,0
175,0.006999999999999895,4.99972120164681,0.021836655483104705,0.0013244041480281249,0
176,0.007039999999999935,5.000049991798719,0.022494235156274286,0.0021017301471798052,0
177,0.007079999999999975,5.000049991798719,0.023809394504130166,0.0035365086858362964,0
178,0.007120000000000015,5.000378781950543,0.025453343691792682,0.005299949259824135,0
179,0.007160000000000055,5.000378781950543,0.026110923367741706,0.0060768918489173904,0
180,0.007200000000000095,5.000378781950543,0.02676850304419573,0.0068537052972229215,0
181,0.007239999999999913,5.000049991798719,0.027426082721154613,0.007630388937229332,0
182,0.007279999999999953,5.000049991798719,0.027754872559823354,0.008078152263236904,0
183,0.007319999999999993,5.000049991798719,0.028741242076586612,0.009183364125338317,0
184,0.007360000000000033,5.000378781950543,0.030713981113518377,0.011274813699934468,0
185,0.007400000000000073,5.000049991798719,0.0313715607935042,0.012050971444862928,0
186,0.007440000000000113,5.000049991798719,0.03268672015498804,0.013484575734150977,0
187,0.007479999999999931,5.000378781950543,0.033015509995673945,0.013931676701723458,0
188,0.007519999999999971,5.000049991798719,0.03268672015498804,0.013721063523870917,0
189,0.007560000000000011,5.000049991798719,0.03268672015498804,0.013839105060165391,0
190,0.007600000000000051,5.000378781950543,0.0323579303144281,0.013628220967531423,0
191,0.007640000000000091,5.000707572102282,0.0353170388840013,0.016705098835494744,0
192,0.007679999999999909,5.000049991798719,0.034988249042434,0.01649394118228285,0
193,0.007719999999999949,5.000049991798719,0.03433066935967702,0.015953855918022276,0
194,0.007759999999999989,5.000049991798719,0.0353170388840013,0.017057581431840496,0
195,0.007800000000000029,5.000378781950543,0.03663219825152894,0.018489957701403093,0
196,0.00784000000000007,5.000049991798719,0.037618567778495635,0.019593404385182416,0
197,0.00788000000000011,4.99972120164681,0.040577676366185214,0.022669449727398316,0
198,0.007919999999999927,5.000378781950543,0.04189283574175878,0.02410140479885343,0
199,0.007959999999999967,5.000378781950543,0.04616710372624461,0.02849232676492924,0
200,0.008000000000000007,5.000378781950543,0.04978379203736312,0.032225526688417334,0
201,0.008040000000000047,5.000049991798719,0.05504442960785576,0.03760253284785441,0
202,0.008080000000000087,5.000049991798719,0.06162022661597208,0.04429455476801564,0
203,0.008119999999999905,4.999392411494816,0.06819602367398483,0.05098643240843587,0
204,0.008159999999999945,5.000049991798719,0.0757581903522391,0.05866453468746487,0
205,0.008199999999999985,4.99972120164681,0.08332035709616414,0.06634249139928529,0
206,0.008240000000000025,5.000378781950543,0.08989615431804343,0.07303393230568893,0
207,0.008280000000000065,4.999392411494816,0.09811590091487153,0.08136917565393974,0
208,0.008320000000000105,5.000049991798719,0.1033765387772625,0.08674516268568827,0
209,0.008359999999999923,4.99972120164681,0.10732201719471773,0.09080584204224565,0
210,0.008399999999999963,4.999063621342738,0.11291144498304434,0.09651032189200796,0
211,0.008440000000000003,5.000378781950543,0.1158705538265029,0.09958433327260999,0
212,0.008480000000000043,5.000049991798719,0.11850087280679227,0.10232940461991616,0
213,0.008520000000000083,4.999392411494816,0.12244635129190345,0.10638948465688047,0
214,0.008559999999999901,4.99972120164681,0.12441909054105722,0.10847667399849024,0
215,0.008599999999999941,5.000049991798719,0.12836456905254606,0.11253645049961408,0
216,0.008639999999999981,4.99972120164681,0.13198125770349964,0.11626728439477371,0
217,0.008680000000000021,5.000378781950543,0.13494036661069325,0.11934038515895831,0
218,0.008720000000000061,4.99972120164681,0.140201004692246,0.12471486106932929,0
219,0.008760000000000101,4.999392411494816,0.1444752731563955,0.1291028126940007,0
220,0.008799999999999919,4.99972120164681,0.14776317198891464,0.13250423937946224,0
221,0.008839999999999959,5.000378781950543,0.1533526000319791,0.13820703932945283,0
222,0.008879999999999999,5.000049991798719,0.1566404988971596,0.14160815351795897,0
223,0.008920000000000039,4.999392411494816,0.16222992699566194,0.14731063971946057,0
224,0.008960000000000079,5.000378781950543,0.1661754056743946,0.1513690186450051,0
225,0.008999999999999897,4.99972120164681,0.17110725404716948,0.15641360877341376,0
226,0.009039999999999937,4.99972120164681,0.17702547213016373,0.1624444094867498,0
227,0.009079999999999977,5.000378781950543,0.18360127004569501,0.16913263027409997,0
228,0.009120000000000017,5.000378781950543,0.18886190841256045,0.17450553112191972,0
229,0.009160000000000057,5.000049991798719,0.1960952862168741,0.18185101038487653,0
230,0.009200000000000097,5.000049991798719,0.20267108427079472,0.18853874824458428,0
231,0.009239999999999915,5.000049991798719,0.2115484117189183,0.1975278532160016,0
232,0.009279999999999955,5.000378781950543,0.22108331907413145,0.20717437518329127,0
233,0.009319999999999995,5.000049991798719,0.2312758063566546,0.21747831353886937,0
234,0.009360000000000035,4.99972120164681,0.24344103326104927,0.22975482735041883,0
235,0.009400000000000075,5.000049991798719,0.2565926300946499,0.24301754629932712,0
236,0.009439999999999893,4.99972120164681,0.27204575661218616,0.2585816295153138,0
237,0.009479999999999933,4.99972120164681,0.28815646325390515,0.2748031268145586,0
238,0.009519999999999973,5.000707572102282,0.30623990981359966,0.2929971973677361,0
239,0.009560000000000013,5.000049991798719,0.32465214666617004,0.3115198909275835,0
240,0.009600000000000053,4.99972120164681,0.34635228341379437,0.33333031647507666,0
241,0.009640000000000093,4.999392411494816,0.3667372608056476,0.3538254141391556,0
242,0.009679999999999911,4.99972120164681,0.38745102859561575,0.37464913305444464,0
243,0.009719999999999951,5.000378781950543,0.407507216875271,0.39481510269423387,0
244,0.009759999999999991,4.99972120164681,0.42591945565659445,0.4133369524532076,0
245,0.009800000000000031,5.000049991798719,0.44235895485817245,0.42988589163364704,0
246,0.009840000000000071,4.99972120164681,0.4548529744330253,0.4424891795732654,0
247,0.009880000000000111,4.99972120164681,0.4637303042258134,0.45147560550241994,0
248,0.009919999999999929,5.000049991798719,0.46964852413130026,0.45750274870258234,0
249,0.009959999999999969,5.000049991798719,0.47162126410753497,0.4595842385195283,1
250,0.010000000000000009,5.000049991798719,0.4686621541446331,0.45673370433212335,0
251,0.010040000000000049,4.99972120164681,0.466031834184917,0.4542117854724712,0
252,0.010080000000000089,5.000049991798719,0.45978482430819984,0.44807300141120376,0
253,0.010119999999999907,5.000049991798719,0.4528802344897605,0.44127646151546285,0
254,0.010159999999999947,5.000049991798719,0.4433453248189173,0.43184942526747955,0
255,0.010199999999999987,5.000049991798719,0.431180095371457,0.41979189213700785,0
256,0.010240000000000027,4.99972120164681,0.4190148660733039,0.4077341814450005,0
257,0.010280000000000067,4.99972120164681,0.4071784269001627,0.3960050825632577,0
258,0.010320000000000107,5.001036362253937,0.39468440792774523,0.38361822496466,0
259,0.010359999999999925,4.99972120164681,0.38317675901549086,0.3722175579068953,0
260,0.010399999999999965,5.000378781950543,0.3713403202763059,0.36048792090220316,0
261,0.010440000000000005,4.99972120164681,0.3608190415184327,0.35007326315924964,0
262,0.010480000000000045,5.000049991798719,0.3489826030529947,0.3383432643906777,0
263,0.010520000000000085,4.99972120164681,0.33583100492916795,0.32529792404828395,0
264,0.010559999999999903,5.000049991798719,0.32432335671924334,0.313896351108087,0
265,0.010599999999999943,4.99972120164681,0.311829338820331,0.3015082253720376,0
266,0.010639999999999983,5.000049991798719,0.2980201613343491,0.2878047563480135,0
267,0.010680000000000023,4.99972120164681,0.28388219411786964,0.2737723132996708,0
268,0.010720000000000063,5.000049991798719,0.2667851177689112,0.25678057623324263,0
269,0.010760000000000103,5.000049991798719,0.2503456215753992,0.240446233846006,0
270,0.01079999999999992,5.000049991798719,0.23094701644254975,0.22115259645367083,0
271,0.01083999999999996,5.000378781950543,0.21023325209152194,0.2005436131890376,0
272,0.01088,5.000049991798719,0.18688916902140254,0.17730412396398798,0
273,0.01092000000000004,4.99972120164681,0.16091476743993832,0.15143412840022233,0
274,0.01096000000000008,5.000707572102282,0.13132367794768446,0.12194725651341418,0
275,0.010999999999999899,5.000049991798719,0.10271895904274086,0.09344656621795187,0
276,0.011039999999999939,5.000378781950543,0.07279908164422239,0.06363052785041415,0
277,0.011079999999999979,5.000049991798719,0.04320799511934159,0.03414309019665884,0
278,0.011120000000000019,5.000049991798719,0.014274489278030808,0.005313042486450481,0
279,0.011160000000000059,4.99972120164681,-0.013672646114138112,-0.022530826093614315,0
280,0.011200000000000099,5.000378781950543,-0.03866067227056637,-0.04741577733471394,0
281,0.011239999999999917,5.000707572102282,-0.0629911180754263,-0.07164334069759393,0
282,0.011279999999999957,5.000707572102282,-0.08337608563423975,-0.09192561886313991,0
283,0.011319999999999997,5.000707572102282,-0.10014436502334141,-0.10859140248183546,0
284,0.011360000000000037,5.000049991798719,-0.11461111559385707,-0.12295585147773497,0
285,0.011400000000000077,5.000707572102282,-0.12546117835382642,-0.13370380743058152,0
286,0.011439999999999895,5.000049991798719,-0.13006423523867633,-0.13820495284627515,0
287,0.011479999999999935,5.000049991798719,-0.1323657636713375,-0.14040476571698368,0
288,0.011519999999999975,5.000049991798719,-0.13269455344690018,-0.14063203640579308,0
289,0.011560000000000015,5.000049991798719,-0.1290778659083996,-0.13691402682248738,0
290,0.011600000000000055,5.000049991798719,-0.12480359879672413,-0.13253863527345078,0
291,0.011640000000000095,5.000049991798719,-0.12020054188215752,-0.12783465209320444,0
292,0.011679999999999913,5.000049991798719,-0.11428232581100171,-0.12181570849102391,0
293,0.011719999999999953,5.000378781950543,-0.10836410969701198,-0.11579696414236887,0
294,0.011759999999999993,4.999392411494816,-0.1024458935402696,-0.10977841960774995,0
295,0.011800000000000033,5.000049991798719,-0.09784283649996468,-0.105075234605506,0
296,0.011840000000000073,5.000049991798719,-0.09192462026741856,-0.09905709138482066,0
297,0.011880000000000113,4.99972120164681,-0.08732156316825516,-0.0943543088278885,0
298,0.01191999999999993,5.000049991798719,-0.08304729583888733,-0.08998051812639557,0
299,0.01195999999999997,5.000049991798719,-0.07778665909545869,-0.08462056065045623,0
300,0.01200000000000001,4.999392411494816,-0.07416997131494572,-0.08090475532970914,0
301,0.01204000000000005,5.000378781950543,-0.07022449371819571,-0.0768603639363496,0
302,0.01208000000000009,4.99972120164681,-0.06595022630053791,-0.07248738701573496,0
303,0.012119999999999909,5.000378781950543,-0.06430627728788789,-0.07074493334248333,0
304,0.012159999999999949,4.99972120164681,-0.06331990787873677,-0.06966026466245737,0
305,0.012199999999999989,5.000049991798719,-0.06463506709067811,-0.07087733053928527,0
306,0.012240000000000029,5.000378781950543,-0.06529264669586828,-0.07143702328981594,0
307,0.012280000000000069,4.99972120164681,-0.06660780590468694,-0.07265450266777387,0
308,0.012320000000000109,5.000378781950543,-0.06627901610267752,-0.07222824060069469,0
309,0.012359999999999927,5.000049991798719,-0.06331990787873677,-0.0691718682181095,0
310,0.012399999999999967,5.000378781950543,-0.06101837925283336,-0.06677328407925781,0
311,0.012440000000000007,5.000378781950543,-0.05378500352999273,-0.05944306202706717,0
312,0.012480000000000047,4.99972120164681,-0.046880417554202566,-0.052441839442053495,0
313,0.012520000000000087,4.99972120164681,-0.03734551301769716,-0.04281050855160007,0
314,0.012559999999999905,5.000049991798719,-0.02781060837275358,-0.03317938834174826,0
315,0.012599999999999945,4.999392411494816,-0.017289334156344746,-0.02256210988184501,0
316,0.012639999999999985,5.000049991798719,-0.008412008934208556,-0.013588992268606673,0
317,0.012680000000000025,5.000049991798719,0.004082004499051814,-0.0009993988262137765,0
318,0.012720000000000065,5.001036362253937,0.014932068945377922,0.00994603271910427,0
319,0.012760000000000105,5.001365152405508,0.022823024993048696,0.01793214242886717,0
320,0.012799999999999923,5.000378781950543,0.031042770953448276,0.02624682808911715,0
321,0.012839999999999963,5.001036362253937,0.03696098809372539,0.03225977044308361,0
322,0.012880000000000003,4.9967620902758165,0.03959130683582415,0.034984599390219286,0
323,0.012920000000000043,4.997419670581074,0.04024888652260587,0.035736473752327434,0
324,0.012960000000000083,5.000049991798719,0.03827614746376892,0.033857813319487014,0
325,0.0129999999999999,4.999063621342738,0.029398821755059465,0.025074349669268685,0
326,0.01303999999999994,5.001036362253937,0.03334429983648583,0.02911347272495446,0
327,0.01307999999999998,4.999063621342738,0.029398821755059465,0.025261422018283936,0
328,0.01312000000000002,4.998734831190575,0.02676850304419573,0.022724312568860275,0
329,0.01316000000000006,5.000049991798719,0.025782133529704057,0.021830933690145632,0
330,0.0132000000000001,5.000378781950543,0.025124553854007567,0.021266125513686035,0
331,0.013239999999999919,5.000378781950543,0.02315181482994949,0.01938593834292303,0
332,0.013279999999999959,5.000378781950543,0.018877546960101396,0.015204002172507058,0
333,0.013319999999999999,5.000049991798719,0.015918438447348998,0.01233700469888857,0
334,0.013360000000000039,5.000378781950543,0.013945699444547363,0.010456155569978379,0
335,0.013400000000000079,4.999392411494816,0.015260858779241576,0.01186298310987366,0
336,0.013439999999999896,4.99972120164681,0.015918438447348998,0.012612008812545407,0
337,0.013479999999999936,4.999392411494816,0.019863916466630674,0.016648710195314956,0
338,0.013519999999999976,4.99972120164681,0.02019270630239349,0.017068500224561273,0
339,0.013560000000000016,4.99972120164681,0.024138184341410046,0.021104754789645797,0
340,0.013600000000000056,4.99972120164681,0.0264397132059056,0.02349683601690445,0
341,0.013640000000000096,5.000049991798719,0.028741242076586612,0.02588869259268109,0
342,0.013679999999999914,4.99972120164681,0.029727611594485073,0.026965164665176962,0
343,0.013719999999999954,5.000378781950543,0.029070031915759978,0.026397461899257284,0
344,0.013759999999999994,5.000049991798719,0.031700350633686175,0.02911743139844522,0
345,0.013800000000000034,4.99972120164681,0.03334429983648583,0.03085080476275849,0
346,0.013840000000000074,4.99972120164681,0.033015509995673945,0.030611211977059904,0
347,0.013879999999999892,4.99972120164681,0.03597461856751347,0.0336592900125176,0
348,0.013919999999999932,4.999063621342738,0.03564582872569445,0.03341924155928921,0
349,0.013959999999999972,5.000378781950543,0.037289777936047624,0.035151703601240335,0
350,0.014000000000000012,5.000378781950543,0.039920096679152195,0.03787030613855741,0
351,0.014040000000000052,5.000049991798719,0.04090646620989019,0.03894472994730691,0
352,0.014080000000000092,4.99972120164681,0.04320799511934159,0.041334083141335555,0
353,0.01411999999999991,5.000049991798719,0.04452315449893275,0.04273683633642365,0
354,0.01415999999999995,5.000378781950543,0.037947357621069405,0.03624840233092319,0
355,0.01419999999999999,4.999392411494816,0.031700350633686175,0.030088526800312203,0
356,0.01424000000000003,5.000378781950543,0.0264397132059056,0.024914788942858798,0
357,0.01428000000000007,5.000378781950543,0.019863916466630674,0.01842565941821859,0
358,0.01432000000000011,4.99972120164681,0.013945699444547363,0.012593876787442254,0
359,0.014359999999999928,5.000049991798719,0.009342641789095676,0.00807702023395139,0
360,0.014399999999999968,5.000049991798719,0.003424424840084442,0.002244770633158137,0
361,0.014440000000000008,5.000378781950543,-0.005781690331979852,-0.006875611407201068,0
362,0.014480000000000048,5.000378781950543,-0.012686276645394332,-0.013694699266561819,0
363,0.014520000000000088,5.000049991798719,-0.020248442542986647,-0.021171601847253668,0
364,0.014559999999999906,5.000378781950543,-0.025180289830972882,-0.02601842141335313,0
365,0.014599999999999946,5.000049991798719,-0.03208487598559902,-0.03283821589732046,0
366,0.014639999999999986,5.000049991798719,-0.0383318824575425,-0.03900066720439627,0
367,0.014680000000000026,4.99972120164681,-0.03931825189622702,-0.039902718436911525,0
368,0.014720000000000066,5.000378781950543,-0.04096220095812057,-0.04146258670258078,0
369,0.014760000000000106,5.000049991798719,-0.04129099077011207,-0.0417075335778737,0
370,0.014799999999999924,5.000378781950543,-0.04161978058197445,-0.04195271876047352,0
371,0.014839999999999964,4.99972120164681,-0.04129099077011207,-0.041540563073019746,0
372,0.014880000000000004,5.000049991798719,-0.042277360205311795,-0.04244380583085437,0
373,0.014920000000000044,5.000707572102282,-0.04030462133375036,-0.04038817992302453,0
374,0.014960000000000084,5.000378781950543,-0.039975831521371616,-0.039976743156654934,0
375,0.014999999999999902,4.99972120164681,-0.04030462133375036,-0.040223126536807166,0
376,0.015039999999999942,4.99972120164681,-0.0389894620834612,-0.03882580181384393,0
377,0.015079999999999982,5.000378781950543,-0.03767430283110791,-0.0374287184844537,0
378,0.015120000000000022,5.000378781950543,-0.03866067227056637,-0.03833340567688881,0
379,0.015160000000000062,4.999392411494816,-0.04129099077011207,-0.04088228419208853,0
380,0.015200000000000102,5.000707572102282,-0.04359251945043667,-0.04310261558169075,0
381,0.01523999999999992,4.999392411494816,-0.04720920736386795,-0.04663834932724727,0
382,0.01527999999999996,4.99972120164681,-0.052469844300912574,-0.05181827564676199,0
383,0.01532,4.99972120164681,-0.057730481204784426,-0.05699844590921453,0
384,0.01536000000000004,5.000378781950543,-0.06364869768191721,-0.06283644014506833,0
385,0.01540000000000008,5.000378781950543,-0.0715396529191989,-0.07064741796350055,0
386,0.015439999999999898,4.99972120164681,-0.07943060808137585,-0.0784586409498014,0
387,0.015479999999999938,4.99972120164681,-0.08666398358056253,-0.0856125299348796,0
388,0.015519999999999978,4.99972120164681,-0.09356856922517286,-0.092437875144189,0
389,0.015560000000000018,5.000049991798719,-0.10080194460026483,-0.09959225657806889,0
390,0.015600000000000058,4.999392411494816,-0.1100080586218566,-0.10871962356605558,0
391,0.0156400000000001,5.000378781950543,-0.11625506450615032,-0.11488812973610174,0
392,0.015679999999999916,5.000049991798719,-0.12348843968092783,-0.12204325292596777,0
393,0.015719999999999956,5.000049991798719,-0.13006423523867633,-0.12854104463634278,0
394,0.015759999999999996,5.000049991798719,-0.1349960818721146,-0.13339513596636637,0
395,0.015800000000000036,5.000049991798719,-0.13894155915730816,-0.13726310689673957,0
396,0.015840000000000076,5.000378781950543,-0.14190066710861254,-0.14014495784466371,0
397,0.015879999999999894,5.001036362253937,-0.14453098527848057,-0.14269826876364358,0
398,0.015919999999999934,5.000049991798719,-0.14913404205518838,-0.14722456844120863,0
399,0.015959999999999974,5.000378781950543,-0.14979162159258003,-0.1478056414286538,0
400,0.016000000000000014,5.000049991798719,-0.15275072950422225,-0.15068849373518928,0
401,0.016040000000000054,5.000049991798719,-0.15472346810596177,-0.1525852280704934,0
402,0.016080000000000094,5.000707572102282,-0.15373709880569447,-0.151523106234477,0
403,0.016119999999999912,5.000049991798719,-0.15307951927151348,-0.15079002628542743,0
404,0.016159999999999952,5.000378781950543,-0.15275072950422225,-0.1503859886125171,0
405,0.016199999999999992,5.000049991798719,-0.15143557043371902,-0.14899583453218382,0
406,0.016240000000000032,5.000049991798719,-0.15209314996923823,-0.14957867233836777,0
407,0.016280000000000072,5.000378781950543,-0.15077799089766464,-0.14818902520082175,0
408,0.016320000000000112,5.000049991798719,-0.14946283182395104,-0.14679963210552466,0
409,0.01635999999999993,4.99972120164681,-0.14781888297880097,-0.14508170366236026,0
410,0.01639999999999997,5.000049991798719,-0.14551735458997894,-0.14270645047642305,0
411,0.01644000000000001,5.000049991798719,-0.14124308756481152,-0.13835871383051485,0
412,0.01648000000000005,5.000049991798719,-0.1392703489302085,-0.13631276112516152,0
413,0.01652000000000009,4.999392411494816,-0.13664003074327558,-0.13360948478922174,0
414,0.016559999999999908,5.000049991798719,-0.13532487164661305,-0.13222162383518152,0
415,0.016599999999999948,4.99972120164681,-0.13170818411981328,-0.12853249111064718,0
416,0.016639999999999988,5.000378781950543,-0.12809149657692737,-0.124843615395808,0
417,0.016680000000000028,5.000049991798719,-0.12644754768848476,-0.12312773572545173,0
418,0.016720000000000068,4.99972120164681,-0.12283086012223408,-0.11943937512970125,0
419,0.016760000000000108,4.99972120164681,-0.11921417253994292,-0.11575127263080986,0
420,0.016799999999999926,5.000049991798719,-0.11658385428821218,-0.11304979793397177,0
421,0.016839999999999966,5.000049991798719,-0.11395353602801415,-0.11034858205685605,0
422,0.016880000000000006,5.000707572102282,-0.1136247462448944,-0.10994915383980454,0
423,0.016920000000000046,5.000378781950543,-0.1100080586218566,-0.10626208731871249,0
424,0.016960000000000086,5.000049991798719,-0.10836410969701198,-0.10454801938267408,0
425,0.016999999999999904,5.000049991798719,-0.10770653012615032,-0.10382058103654919,0
426,0.017039999999999944,5.000378781950543,-0.10573379141039972,-0.10177824412861881,0
427,0.017079999999999984,5.000049991798719,-0.10507621183742798,-0.10105132729178253,0
428,0.017120000000000024,5.000049991798719,-0.1024458935402696,-0.09835193300238143,0
429,0.017160000000000064,4.99972120164681,-0.0998155752346823,-0.09565280031755073,0
430,0.017200000000000104,5.000049991798719,-0.09850041607873007,-0.09426908873479901,0
431,0.017239999999999922,5.000378781950543,-0.09652767734085597,-0.09222805986007676,0
432,0.017279999999999962,5.000378781950543,-0.09455493859824966,-0.09018729360614018,0
433,0.017320000000000002,5.000049991798719,-0.09521251817964406,-0.09077710863534391,0
434,0.017360000000000042,5.000707572102282,-0.09323977943388458,-0.08873686862820646,0
435,0.017400000000000082,5.000378781950543,-0.09192462026741856,-0.08735447182089554,0
436,0.0174399999999999,5.000049991798719,-0.09455493859824966,-0.08991781645917876,0
437,0.01747999999999994,4.999063621342738,-0.09258219985091413,-0.08787836829339599,0
438,0.01751999999999998,5.000049991798719,-0.09225341005923197,-0.08748313368120669,0
439,0.01756000000000002,5.000378781950543,-0.09192462026741856,-0.08708816398869774,0
440,0.01760000000000006,5.000049991798719,-0.09126704068339796,-0.08636466974369286,0
441,0.0176400000000001,4.99972120164681,-0.09126704068339796,-0.08629902064034398,0
442,0.017679999999999918,4.99972120164681,-0.08962309172105022,-0.08458968844822752,0
443,0.017719999999999958,5.000049991798719,-0.09060946109885244,-0.08551094078380303,0
444,0.017759999999999998,5.000378781950543,-0.09028067130638286,-0.08511730044862395,0
445,0.017800000000000038,5.000049991798719,-0.09060946109885244,-0.08538150650788606,0
446,0.017840000000000078,4.99972120164681,-0.09060946109885244,-0.08531718989217109,0
447,0.017879999999999896,4.99972120164681,-0.08995188151378213,-0.08459556111487095,0
448,0.017919999999999936,5.000049991798719,-0.08929430192818714,-0.08387420006452237,0
449,0.017959999999999976,5.000049991798719,-0.08929430192818714,-0.08381068662923097,0
450,0.018000000000000016,5.000049991798719,-0.08797914275542355,-0.08243228235061531,0
451,0.018040000000000056,5.000049991798719,-0.08797914275542355,-0.08236930587216743,0
452,0.018080000000000096,4.99972120164681,-0.08765035296190492,-0.08197780852355395,0
453,0.018119999999999914,5.000378781950543,-0.08732156316825516,-0.08158658039209149,0
454,0.018159999999999954,4.99972120164681,-0.0863351937865197,-0.08053804218173131,0
455,0.018199999999999994,5.000049991798719,-0.08699277337447438,-0.08113372274012838,0
456,0.018240000000000034,4.99972120164681,-0.08699277337447438,-0.08107209379748676,0
457,0.018280000000000074,5.000049991798719,-0.0863351937865197,-0.08035315563962157,0
458,0.018320000000000114,4.99972120164681,-0.08666398358056253,-0.0806208575202627,0
459,0.018359999999999932,4.99972120164681,-0.08732156316825516,-0.08121762013279933,0
460,0.018399999999999972,5.000049991798719,-0.08797914275542355,-0.08181465396274984,0
461,0.018440000000000012,5.000049991798719,-0.08699277337447438,-0.08076801032016552,0
462,0.018480000000000052,5.000049991798719,-0.08666398358056253,-0.08037921803579454,0
463,0.018520000000000092,5.000049991798719,-0.08765035296190492,-0.08130585697139225,0
464,0.01855999999999991,4.999063621342738,-0.08699277337447438,-0.08058881925441178,0
465,0.01859999999999995,4.99972120164681,-0.08797914275542355,-0.08151600309142454,0
466,0.01863999999999999,5.000049991798719,-0.08797914275542355,-0.08145709040045554,0
467,0.01868000000000003,5.000378781950543,-0.08699277337447438,-0.08041208144679052,0
468,0.01872000000000007,5.000049991798719,-0.08765035296190492,-0.08101129484297265,0
469,0.01876000000000011,4.99972120164681,-0.08765035296190492,-0.08095320229433109,0
470,0.018799999999999928,5.000378781950543,-0.08732156316825516,-0.08056659385370797,0
471,0.018839999999999968,5.000378781950543,-0.08896551213519292,-0.08215299833232066,0
472,0.018880000000000008,5.000049991798719,-0.08896551213519292,-0.08209572825753961,0
473,0.018920000000000048,5.000049991798719,-0.09028067130638286,-0.08335389202030066,0
474,0.018960000000000088,4.99972120164681,-0.08896551213519292,-0.08198201235775154,0
475,0.018999999999999906,4.99972120164681,-0.08896551213519292,-0.08192556703208567,0
476,0.019039999999999946,4.99972120164681,-0.09060946109885244,-0.08351334608229927,0
477,0.019079999999999986,5.000049991798719,-0.09060946109885244,-0.08345745182549984,0
478,0.019120000000000026,5.000049991798719,-0.09093825089119083,-0.08373062326000859,0
479,0.019160000000000066,5.000707572102282,-0.09258219985091413,-0.08531923000108883,0
480,0.019200000000000106,5.000049991798719,-0.09225341005923197,-0.08493537436805726,0
481,0.019239999999999924,5.000378781950543,-0.09291098964246501,-0.08553816472322881,0
482,0.019279999999999964,4.999392411494816,-0.09389735901632983,-0.08647002171619853,0
483,0.019320000000000004,4.99972120164681,-0.09192462026741856,-0.08444304766531792,0
484,0.019360000000000044,5.000049991798719,-0.09291098964246501,-0.08537545904695792,0
485,0.019400000000000084,5.000707572102282,-0.09192462026741856,-0.08433540921457978,0
486,0.019439999999999902,5.000707572102282,-0.09291098964246501,-0.08526837589375279,0
487,0.019479999999999942,4.99972120164681,-0.09291098964246501,-0.08521525118258992,0
488,0.019519999999999982,5.000707572102282,-0.09192462026741856,-0.08417603530220931,0
489,0.019560000000000022,4.999392411494816,-0.09323977943388458,-0.08543862638815075,0
490,0.019600000000000062,5.000049991798719,-0.09323977943388458,-0.08538633694927633,0
491,0.019640000000000102,5.000707572102282,-0.09258219985091413,-0.08467674678377897,0
492,0.01967999999999992,4.99972120164681,-0.09389735901632983,-0.08594017443556654,0
493,0.01971999999999996,5.000378781950543,-0.09028067130638286,-0.08227203449129242,0
494,0.01976,5.000378781950543,-0.09028067130638286,-0.08222086174451654,0
495,0.01980000000000004,4.99972120164681,-0.09093825089119083,-0.08282754827619541,0
496,0.01984000000000008,5.000378781950543,-0.09093825089119083,-0.08277693512065094,0
497,0.019879999999999898,4.99972120164681,-0.09028067130638286,-0.08206902247966069,0
498,0.019919999999999938,5.000378781950543,-0.09093825089119083,-0.0826765493072632,0
499,0.019959999999999978,5.000378781950543,-0.09093825089119083,-0.0826267770464834,0
500,0.020000000000000018,5.000049991798719,-0.09060946109885244,-0.08224849568507123,0
501,0.020040000000000058,5.000049991798719,-0.08995188151378213,-0.08154170541574228,0
502,0.020080000000000098,5.000049991798719,-0.09060946109885244,-0.08215035539230431,0
503,0.020119999999999916,4.99972120164681,-0.09126704068339796,-0.08275928663285025,0
504,0.020159999999999956,4.999392411494816,-0.09126704068339796,-0.08271091973993838,0
505,0.020199999999999996,5.000378781950543,-0.09126704068339796,-0.08266283448251119,0
506,0.020240000000000036,5.000049991798719,-0.09225341005923197,-0.08360140041861472,0
507,0.020280000000000076,5.000707572102282,-0.09093825089119083,-0.0822387198085643,0
508,0.020319999999999894,4.99972120164681,-0.09159583047547391,-0.08284906012639372,0
509,0.020359999999999934,5.000049991798719,-0.09225341005923197,-0.08345968279489531,0
510,0.020399999999999974,5.000378781950543,-0.09126704068339796,-0.08242663902844827,0
511,0.020440000000000014,5.000378781950543,-0.09126704068339796,-0.08238024733372704,0
512,0.020480000000000054,5.000049991798719,-0.09060946109885244,-0.0816765589194001,0
513,0.020520000000000094,5.000049991798719,-0.09060946109885244,-0.08163073312140362,0
514,0.02055999999999991,4.999392411494816,-0.09126704068339796,-0.0822427701043773,0
515,0.02059999999999995,5.000049991798719,-0.09093825089119083,-0.08186872106945481,0
516,0.02063999999999999,5.000049991798719,-0.09093825089119083,-0.08182374534581738,0
517,0.02068000000000003,5.000049991798719,-0.09126704068339796,-0.08210784309147394,0
518,0.02072000000000007,5.000378781950543,-0.08962309172105022,-0.08041948591545653,0
519,0.02076000000000011,5.000707572102282,-0.08995188151378213,-0.0807041514809763,0
520,0.02079999999999993,5.000378781950543,-0.08797914275542355,-0.07868757263322011,0
521,0.02083999999999997,5.000378781950543,-0.08995188151378213,-0.08061675558913044,0
522,0.02088000000000001,5.000049991798719,-0.08962309172105022,-0.08024469442781018,0
523,0.02092000000000005,5.000378781950543,-0.08896551213519292,-0.07954412805190816,0
524,0.02096000000000009,5.000707572102282,-0.08995188151378213,-0.0804877953614512,0
525,0.020999999999999908,4.99972120164681,-0.09093825089119083,-0.08143174753103591,0
526,0.021039999999999948,4.999392411494816,-0.08765035296190492,-0.07810171739313825,0
527,0.021079999999999988,4.999392411494816,-0.09192462026741856,-0.08233413762500683,0
528,0.021120000000000028,5.000049991798719,-0.08896551213519292,-0.07933346768761958,0
529,0.021160000000000068,5.000378781950543,-0.09060946109885244,-0.08093614024587775,0
530,0.021200000000000108,5.000378781950543,-0.09192462026741856,-0.08221030853783746,0
531,0.021239999999999926,4.999063621342738,-0.09159583047547391,-0.08184081352487169,0
532,0.021279999999999966,5.001365152405508,-0.09323977943388458,-0.08344434304239028,0
533,0.021320000000000006,4.998406041038327,-0.09356856922517286,-0.08373299929521058,0
534,0.021360000000000046,4.998077250885994,-0.09554130797014417,-0.08566589052418228,0
535,0.021400000000000086,4.999392411494816,-0.09587009776051285,-0.08595511893881108,0
536,0.021439999999999904,4.999392411494816,-0.09455493859824966,-0.08460068465660411,0
537,0.021479999999999944,4.999063621342738,-0.09915799565696932,-0.08916475296445536,0
538,0.021519999999999984,5.000707572102282,-0.09652767734085597,-0.08649573237756933,0
539,0.021560000000000024,4.99972120164681,-0.0998155752346823,-0.08974521458947822,0
540,0.021600000000000064,4.99972120164681,-0.09948678544589158,-0.08937829581412207,0
541,0.021640000000000104,5.000049991798719,-0.10080194460026483,-0.09065561278151395,0
542,0.02167999999999992,4.999392411494816,-0.1024458935402696,-0.09226200643608691,0
543,0.02171999999999996,5.000378781950543,-0.10376105268990284,-0.09353989730153474,0
544,0.02176,5.000378781950543,-0.10540500162397977,-0.09514686505009914,0
545,0.02180000000000004,5.000049991798719,-0.10573379141039972,-0.0954389608448337,0
546,0.02184000000000008,5.000378781950543,-0.10672016076886852,-0.0963889234983244,0
547,0.0218799999999999,5.000049991798719,-0.10672016076886852,-0.09635280417065778,0
548,0.02191999999999994,5.000049991798719,-0.10704895055476103,-0.09664576209452178,0
549,0.02195999999999998,5.000049991798719,-0.10737774034052165,-0.09693900756993899,0
550,0.02200000000000002,5.000049991798719,-0.10737774034052165,-0.09690375089504634,0
551,0.02204000000000006,4.999392411494816,-0.10770653012615032,-0.0971975717227158,0
552,0.0220800000000001,5.000049991798719,-0.10869289948224485,-0.09814925991698269,0
553,0.022119999999999918,5.000707572102282,-0.10704895055476103,-0.09647091770071461,0
554,0.022159999999999958,4.99972120164681,-0.10639137098284411,-0.09577923278768091,0
555,0.022199999999999998,4.99972120164681,-0.10639137098284411,-0.09574541546656601,0
556,0.022240000000000038,5.000049991798719,-0.10606258119668784,-0.09538309644933973,0
557,0.022280000000000078,5.000049991798719,-0.10672016076886852,-0.09600743494824537,0
558,0.022319999999999895,4.99972120164681,-0.10540500162397977,-0.09465932295333211,0
559,0.022359999999999935,5.000049991798719,-0.10606258119668784,-0.09528423796242576,0
560,0.022399999999999975,5.000049991798719,-0.10704895055476103,-0.09623823110415677,0
561,0.022440000000000015,5.000378781950543,-0.10507621183742798,-0.09423340457631685,0
562,0.022480000000000055,5.000049991798719,-0.10639137098284411,-0.09551676437332382,0
563,0.022520000000000095,5.000378781950543,-0.10474742205074437,-0.09384130460887281,0
564,0.022559999999999913,5.000378781950543,-0.10441863226392899,-0.09348129255742073,0
565,0.022599999999999953,5.000049991798719,-0.10408984247698179,-0.09312156912290287,0
566,0.022639999999999993,4.99972120164681,-0.10376105268990284,-0.0927621343523643,0
567,0.022680000000000033,5.000049991798719,-0.1027746833278755,-0.09174540871572531,0
568,0.022720000000000073,4.99972120164681,-0.10376105268990284,-0.09270171055441637,0
569,0.022760000000000113,5.000049991798719,-0.1027746833278755,-0.09168556246044453,0
570,0.02279999999999993,5.000049991798719,-0.10343226290269213,-0.0923136521325125,0
571,0.02283999999999997,5.000707572102282,-0.10310347311534969,-0.09195566130710743,0
572,0.02288000000000001,5.000049991798719,-0.1024458935402696,-0.09126916959182586,0
573,0.02292000000000005,5.000707572102282,-0.1027746833278755,-0.09156933616795018,0
574,0.02296000000000009,5.000049991798719,-0.10145952417666172,-0.09022584276251609,0
575,0.02299999999999991,5.000378781950543,-0.10113073438852911,-0.08986900770364714,0
576,0.02303999999999995,5.001036362253937,-0.1027746833278755,-0.09148520037964418,0
577,0.02307999999999999,5.000378781950543,-0.10310347311534969,-0.09178652293273817,0
578,0.02312000000000003,5.000707572102282,-0.10441863226392899,-0.09307450389516653,0
579,0.02316000000000007,5.000378781950543,-0.10606258119668784,-0.09469156370694048,0
580,0.02320000000000011,5.000049991798719,-0.10639137098284411,-0.0949937534518901,0
581,0.023239999999999927,5.000049991798719,-0.10573379141039972,-0.09430986293030376,0
582,0.023279999999999967,5.000049991798719,-0.10672016076886852,-0.09527021044165504,0
583,0.023320000000000007,4.99972120164681,-0.10803531991164712,-0.09655963684697252,0
584,0.023360000000000047,4.99972120164681,-0.10902168926734575,-0.09752056258016968,0
585,0.023400000000000087,4.999392411494816,-0.10967926883715166,-0.09815298764540738,0
586,0.023439999999999905,4.99972120164681,-0.10935047905231472,-0.09779933247457853,0
587,0.023479999999999945,5.000049991798719,-0.11099442797517921,-0.0994187051283387,0
588,0.023519999999999985,5.000707572102282,-0.1106656381908704,-0.0990656281877919,0
589,0.023560000000000025,5.000049991798719,-0.11099442797517921,-0.09937041992237403,0
590,0.023600000000000065,5.000378781950543,-0.11132321775935598,-0.09967550075464583,0
591,0.023640000000000105,5.000049991798719,-0.1103368484064295,-0.09866571153661105,0
592,0.023679999999999923,5.000049991798719,-0.11099442797517921,-0.09930016031368791,0
593,0.023719999999999963,4.99972120164681,-0.1100080586218566,-0.09829094922642956,0
594,0.023760000000000003,5.000049991798719,-0.10967926883715166,-0.09793960674748967,0
595,0.023800000000000043,5.000378781950543,-0.1100080586218566,-0.09824613285728542,0
596,0.023840000000000083,4.99972120164681,-0.10869289948224485,-0.0969089990393758,0
597,0.0238799999999999,5.000049991798719,-0.10836410969701198,-0.0965585235474016,0
598,0.02391999999999994,5.000049991798719,-0.10770653012615032,-0.0958795472139593,0
599,0.02395999999999998,5.000049991798719,-0.10606258119668784,-0.09421449043633909,0
600,0.02400000000000002,4.99972120164681,-0.10704895055476103,-0.09518004082859716,0
601,0.02404000000000006,5.000049991798719,-0.10606258119668784,-0.09417314135262787,0
602,0.0240800000000001,5.000049991798719,-0.10474742205074437,-0.0928377408999399,0
603,0.02411999999999992,4.99972120164681,-0.10474742205074437,-0.09281778836523491,0
604,0.02415999999999996,5.000378781950543,-0.1027746833278755,-0.09082538583824323,0
605,0.0242,5.000049991798719,-0.10343226290269213,-0.09146359029571625,0
606,0.02424000000000004,5.000049991798719,-0.1024458935402696,-0.09045813445658009,0
607,0.02428000000000008,5.000378781950543,-0.10145952417666172,-0.08945296720839269,0
608,0.024319999999999897,5.000049991798719,-0.10113073438852911,-0.08910566807697162,0
609,0.024359999999999937,5.000049991798719,-0.10047315481186896,-0.08842986764512324,0
610,0.024399999999999977,5.000049991798719,-0.0998155752346823,-0.08775435564530937,0
611,0.024440000000000017,5.000049991798719,-0.10178831396466272,-0.08970945032733575,0
612,0.024480000000000057,4.99972120164681,-0.10014436502334141,-0.08804814565249655,0
613,0.024520000000000097,5.000049991798719,-0.10047315481186896,-0.08835986795935573,0
614,0.024559999999999915,5.000049991798719,-0.10047315481186896,-0.08834308866460033,0
615,0.024599999999999955,4.99972120164681,-0.0998155752346823,-0.0876690179122844,0
616,0.024639999999999995,4.99972120164681,-0.09948678544589158,-0.08732402499835314,0
617,0.024680000000000035,5.000378781950543,-0.09784283649996468,-0.08566416090528609,0
618,0.024720000000000075,4.99972120164681,-0.09784283649996468,-0.08564853366180669,0
619,0.024759999999999893,5.000707572102282,-0.09882920586791545,-0.08661956361324775,0
620,0.024799999999999933,5.000378781950543,-0.09751404671038476,-0.08528935278713423,0
621,0.024839999999999973,4.99972120164681,-0.09784283649996468,-0.08560337857466313,0
622,0.024880000000000013,4.99972120164681,-0.09751404671038476,-0.08526011236581661,0
623,0.024920000000000053,5.000378781950543,-0.0971852569206733,-0.08491713365352307,0
624,0.024960000000000093,4.99972120164681,-0.0971852569206733,-0.08490323213917272,0
625,0.02499999999999991,5.000049991798719,-0.09587009776051285,-0.0835744587820881,0
626,0.02503999999999995,5.000049991798719,-0.09685646713083039,-0.08454750117974918,0
627,0.02507999999999999,4.999392411494816,-0.09619888755075014,-0.0838768817557686,0
628,0.02512000000000003,5.000707572102282,-0.09619888755075014,-0.08386412894275988,0
629,0.02516000000000007,5.000378781950543,-0.09587009776051285,-0.08352287327018773,0
630,0.02520000000000011,5.000378781950543,-0.09488372838901253,-0.08252432484445538,0
631,0.02523999999999993,5.000378781950543,-0.09455493859824966,-0.082183642722639,0
632,0.02527999999999997,4.999392411494816,-0.09422614880735543,-0.08184324721659222,0
633,0.02532000000000001,5.000378781950543,-0.09389735901632983,-0.0815031382166842,0
634,0.02536000000000005,4.99972120164681,-0.09323977943388458,-0.08083452581964276,0
635,0.02540000000000009,5.000378781950543,-0.09323977943388458,-0.08082377928499594,0
636,0.025439999999999907,5.000378781950543,-0.09291098964246501,-0.08048452912218919,0
637,0.025479999999999947,5.000707572102282,-0.09225341005923197,-0.07981677521178628,0
638,0.025519999999999987,5.000049991798719,-0.09192462026741856,-0.07947809701562535,0
639,0.025560000000000027,4.999392411494816,-0.09060946109885244,-0.0781533352417868,0
640,0.025600000000000067,5.000378781950543,-0.09159583047547391,-0.07913038768611147,0
641,0.025640000000000107,5.000049991798719,-0.09093825089119083,-0.0784637767140558,0
642,0.025679999999999925,5.000049991798719,-0.08962309172105022,-0.07713987156986371,0
643,0.025719999999999965,5.000049991798719,-0.08962309172105022,-0.07713141087637868,0
644,0.025760000000000005,5.000378781950543,-0.08896551213519292,-0.07646565574209667,0
645,0.025800000000000045,5.000049991798719,-0.08929430192818714,-0.07678655499386906,0
646,0.025840000000000085,5.000049991798719,-0.08929430192818714,-0.07677894931964174,0
647,0.025879999999999903,4.99972120164681,-0.08929430192818714,-0.07677162836984977,0
648,0.025919999999999943,4.99972120164681,-0.08929430192818714,-0.07676459199958358,0
649,0.025959999999999983,5.000049991798719,-0.08896551213519292,-0.07642905026858925,0
650,0.026000000000000023,5.000378781950543,-0.08732156316825516,-0.07477863364630796,0
651,0.026040000000000063,5.000049991798719,-0.08863672234206758,-0.07608760929547465,0
652,0.026080000000000103,4.99972120164681,-0.08797914275542355,-0.07542413016057496,0
653,0.02611999999999992,5.000049991798719,-0.08732156316825516,-0.07476093484488491,0
654,0.02615999999999996,5.000049991798719,-0.08699277337447438,-0.07442681298331233,0
655,0.0262,5.000378781950543,-0.0863351937865197,-0.07376418482694415,0
656,0.02624000000000004,5.000378781950543,-0.08502003460903816,-0.07244426041672877,0
657,0.02628000000000008,5.000049991798719,-0.08502003460903816,-0.07243977835362964,0
658,0.0263199999999999,4.99972120164681,-0.08337608563423975,-0.07079163031697597,0
659,0.02635999999999994,4.99972120164681,-0.08271850604340404,-0.07013013449479291,0
660,0.02639999999999998,5.000049991798719,-0.08173213665616903,-0.06914013153363782,0
661,0.02644000000000002,4.99972120164681,-0.08074576726775658,-0.0681504110533081,0
662,0.02648000000000006,5.000707572102282,-0.08107455706402487,-0.06847613206189433,0
663,0.0265200000000001,5.000378781950543,-0.08008818767482774,-0.06748697600914032,0
664,0.026559999999999917,5.000049991798719,-0.08074576726775658,-0.0681420508801857,0
665,0.026599999999999957,5.000378781950543,-0.08008818767482774,-0.06748224832225415,0
666,0.026639999999999997,4.99972120164681,-0.07877302848740105,-0.06616514773957256,0
667,0.026680000000000037,5.000378781950543,-0.0791018182844538,-0.06649227752164587,0
668,0.026720000000000077,4.99972120164681,-0.0791018182844538,-0.06649089869513083,0
669,0.026759999999999895,5.000378781950543,-0.07745786929788322,-0.0648458518763607,0
670,0.026799999999999935,5.000049991798719,-0.07680028970234042,-0.06418745524644774,0
671,0.026839999999999975,4.999392411494816,-0.07680028970234042,-0.06418691881108463,0
672,0.026880000000000015,5.000378781950543,-0.07581392030804664,-0.06320029337927709,0
673,0.026920000000000055,4.99972120164681,-0.07614271010627514,-0.06352910733434904,0
674,0.026960000000000095,5.000049991798719,-0.07482755091257769,-0.062214252286026575,0
675,0.026999999999999913,4.999392411494816,-0.07416997131494572,-0.06155725661414295,0
676,0.027039999999999953,5.000378781950543,-0.07614271010627514,-0.06353085890110406,0
677,0.027079999999999993,4.99972120164681,-0.07614271010627514,-0.06353200175379836,0
678,0.027120000000000033,5.000049991798719,-0.07680028970234042,-0.06419100334447005,0
679,0.027160000000000073,5.000378781950543,-0.07680028970234042,-0.06419270426350944,0
680,0.027200000000000113,5.000378781950543,-0.07647149990437309,-0.06386589408920788,0
681,0.02723999999999993,5.000049991798719,-0.07515634071119788,-0.06255299300219203,0
682,0.02727999999999997,5.000049991798719,-0.07449876111382696,-0.06189794976901607,0
683,0.02732000000000001,4.99972120164681,-0.07482755091257769,-0.062229553963215486,0
684,0.02736000000000005,5.000049991798719,-0.07449876111382696,-0.06190385636206258,0
685,0.02740000000000009,5.000049991798719,-0.07384118151593398,-0.06124964653249047,0
686,0.02743999999999991,5.000049991798719,-0.07384118151593398,-0.061253293637788,0
687,0.02747999999999995,5.000049991798719,-0.07351239171679176,-0.0609284280448545,0
688,0.02751999999999999,5.000049991798719,-0.07285481211811588,-0.06027504951491519,0
689,0.02756000000000003,5.000049991798719,-0.07285481211811588,-0.060279527205479605,0
690,0.02760000000000007,5.000378781950543,-0.07285481211811588,-0.06028428127485648,0
691,0.02764000000000011,5.000378781950543,-0.07318360191751903,-0.060618101277119654,0
692,0.027679999999999927,5.000049991798719,-0.07318360191751903,-0.060623407365820975,0
693,0.027719999999999967,5.000049991798719,-0.07219723251891826,-0.059642619691809756,0
694,0.027760000000000007,5.000378781950543,-0.07384118151593398,-0.06129242579704043,0
695,0.027800000000000047,5.000707572102282,-0.07252602231858225,-0.05998339883695765,0
696,0.027840000000000087,4.99972120164681,-0.07186844271912378,-0.0593322263469437,0
697,0.027879999999999905,5.000707572102282,-0.07285481211811588,-0.06032527746837196,0
698,0.027919999999999945,5.001693942556992,-0.07022449371819571,-0.05770191514239162,0
699,0.027959999999999985,4.99972120164681,-0.07318360191751903,-0.0606682535033681,0
700,0.028000000000000025,5.000378781950543,-0.07285481211811588,-0.06034696768724035,0
701,0.028040000000000065,5.000049991798719,-0.07351239171679176,-0.061012324822423525,0
702,0.028080000000000105,5.000378781950543,-0.07416997131494572,-0.061677955239628615,0
703,0.028119999999999923,4.999392411494816,-0.07416997131494572,-0.06168627906823915,0
704,0.028159999999999963,4.99972120164681,-0.07252602231858225,-0.06005092663476638,0
705,0.028200000000000003,5.000049991798719,-0.07252602231858225,-0.06005979565436474,0
706,0.028240000000000043,5.000049991798719,-0.07351239171679176,-0.06105530624901609,0
707,0.028280000000000083,5.000049991798719,-0.07384118151593398,-0.06139350913928955,0
708,0.0283199999999999,4.99972120164681,-0.07384118151593398,-0.06140319384066789,0
709,0.02835999999999994,5.000049991798719,-0.07318360191751903,-0.06075557026714959,0
710,0.02839999999999998,4.99972120164681,-0.07384118151593398,-0.06142337692496597,0
711,0.02844000000000002,5.000049991798719,-0.07416997131494572,-0.061762664526587366,0
712,0.02848000000000006,5.000049991798719,-0.0715396529191989,-0.0591431143830807,0
713,0.0285200000000001,5.000049991798719,-0.07252602231858225,-0.060140522188477555,0
714,0.02855999999999992,5.000049991798719,-0.07252602231858225,-0.060151830450129576,0
715,0.02859999999999996,5.000707572102282,-0.07219723251891826,-0.05983461846734546,0
716,0.02864,5.000049991798719,-0.07219723251891826,-0.059846465536768506,0
717,0.02868000000000004,5.000378781950543,-0.0715396529191989,-0.05920100195405861,0
718,0.02872000000000008,5.000378781950543,-0.07186844271912378,-0.05954217641135236,0
719,0.028759999999999897,5.000049991798719,-0.07252602231858225,-0.060212408999043746,0
720,0.028799999999999937,5.000049991798719,-0.07186844271912378,-0.05956775040692057,0
721,0.028839999999999977,5.000378781950543,-0.07186844271912378,-0.059580939119332224,0
722,0.028880000000000017,5.000049991798719,-0.07055328351864205,-0.05827923602005017,0
723,0.028920000000000057,5.000378781950543,-0.06989570391761903,-0.05763537959046594,0
724,0.028960000000000097,4.99972120164681,-0.07022449371819571,-0.05797815931191312,0
725,0.028999999999999915,5.000707572102282,-0.07022449371819571,-0.05799241565915146,0
726,0.029039999999999955,5.000707572102282,-0.06989570391761903,-0.05767814830686284,0
727,0.029079999999999995,5.000049991798719,-0.07055328351864205,-0.05835051612965339,0
728,0.029120000000000035,4.99972120164681,-0.06858054471400928,-0.05639283099044731,0
729,0.029160000000000075,4.99972120164681,-0.06923812431607472,-0.05706572936953065,0
730,0.029200000000000115,5.000049991798719,-0.06989570391761903,-0.057738892525370636,0
731,0.029239999999999933,5.000049991798719,-0.07022449371819571,-0.058083530320964,0
732,0.029279999999999973,5.000049991798719,-0.06956691411691203,-0.05744206281662004,0
733,0.029320000000000013,4.999392411494816,-0.07186844271912378,-0.059759967276657666,0
734,0.029360000000000053,4.99972120164681,-0.07022449371819571,-0.058132657551168185,0
735,0.029400000000000093,5.000378781950543,-0.06923812431607472,-0.05716319049659063,0
736,0.02943999999999991,5.000707572102282,-0.0715396529191989,-0.05948188417162306,0
737,0.02947999999999995,4.99972120164681,-0.06956691411691203,-0.057526572815639346,0
738,0.02951999999999999,5.000378781950543,-0.0715396529191989,-0.0595170010864267,0
739,0.02956000000000003,5.000378781950543,-0.06825175491278114,-0.0562470542162839,0
740,0.02960000000000007,4.998077250885994,-0.06956691411691203,-0.05758042586781853,0
741,0.02964000000000011,5.000378781950543,-0.07055328351864205,-0.05858526866921508,0
742,0.02967999999999993,4.999063621342738,-0.0715396529191989,-0.05959037206061747,0
743,0.02971999999999997,5.002022732708393,-0.06792296511142272,-0.055992678471566734,0
744,0.02976000000000001,5.000378781950543,-0.07055328351864205,-0.05864225095987949,0
745,0.02980000000000005,5.001693942556992,-0.06759417530993413,-0.055702656326910405,0
746,0.02984000000000009,5.001036362253937,-0.06726538550831525,-0.05539363922574515,0
747,0.029879999999999907,4.999063621342738,-0.06693659570656622,-0.055084880877028314,0
748,0.029919999999999947,5.000049991798719,-0.06726538550831525,-0.055433960510048855,0
749,0.029959999999999987,5.000378781950543,-0.06693659570656622,-0.055125718541271185,0
750,0.030000000000000027,5.000378781950543,-0.06693659570656622,-0.05514652399720524,0
751,0.030040000000000067,5.000707572102282,-0.06627901610267752,-0.05451000709128111,0
752,0.030080000000000107,4.99972120164681,-0.06595022630053791,-0.054202536846012075,0
753,0.030119999999999925,4.99972120164681,-0.06529264669586828,-0.053566533271804564,0
754,0.030159999999999965,5.000049991798719,-0.06496385689333826,-0.053259575585826696,0
755,0.030200000000000005,5.000049991798719,-0.06529264669586828,-0.05361045320131293,0
756,0.030240000000000045,5.000378781950543,-0.06595022630053791,-0.054290375923475395,0
757,0.030280000000000085,5.000049991798719,-0.06693659570656622,-0.05529934335748701,0
758,0.030319999999999903,5.000378781950543,-0.06726538550831525,-0.05565098570148794,0
759,0.030359999999999943,5.000049991798719,-0.06858054471400928,-0.05698925156530757,0
760,0.030399999999999983,5.000049991798719,-0.07022449371819571,-0.05865656094292822,0
761,0.030440000000000023,5.000049991798719,-0.07186844271912378,-0.06032412362986675,0
762,0.030480000000000063,5.000049991798719,-0.07318360191751903,-0.06166314942195178,0
763,0.030520000000000103,5.000049991798719,-0.07318360191751903,-0.0616872685162624,0
764,0.03055999999999992,5.000378781950543,-0.07252602231858225,-0.06105406010304004,0
765,0.03059999999999996,5.000049991798719,-0.07121086311914367,-0.05976352376934718,0
766,0.03064,5.000049991798719,-0.06923812431607472,-0.05781565909853027,0
767,0.03068000000000004,5.000049991798719,-0.06430627728788789,-0.052908937053427335,0
768,0.03072000000000008,5.000049991798719,-0.06036079964426265,-0.04898883482589697,0
769,0.0307599999999999,4.99972120164681,-0.05510016275699865,-0.0437538233677745,0
770,0.03079999999999994,5.000049991798719,-0.048853156410254436,-0.037532692041113785,0
771,0.03083999999999998,5.000707572102282,-0.04194857039370768,-0.030654230211350608,0
772,0.03088000000000002,5.000378781950543,-0.0340576148765004,-0.022789647621251033,0
773,0.03092000000000006,4.99972120164681,-0.02781060837275358,-0.016569262356429262,0
774,0.0309600000000001,5.000049991798719,-0.01926207308192608,-0.008047596185709632,0
775,0.030999999999999917,5.000049991798719,-0.012028696998925656,-0.0008413366712408943,0
776,0.031039999999999957,5.000049991798719,-0.007425639459330238,0.0037343572862791746,0
777,0.031079999999999997,5.000049991798719,-0.0015074225859438989,0.009624964001044428,0
778,0.031120000000000037,5.000049991798719,0.004082004499051814,0.015186534789985814,0
779,0.031160000000000077,4.99972120164681,0.009342641789095676,0.020419070087765945,0
780,0.031199999999999894,5.000378781950543,0.014932068945377922,0.025980149998906743,0
781,0.031239999999999934,4.99972120164681,0.019206336795484613,0.03022582579643024,0
782,0.031279999999999974,5.000378781950543,0.024795764016348754,0.035786416604806276,0
783,0.031320000000000014,4.99972120164681,0.030385191273714543,0.04134676353941341,0
784,0.031360000000000054,4.999392411494816,0.03597461856751347,0.046906867051911605,0
785,0.031400000000000095,5.000049991798719,0.04320799511934159,0.054110676817716086,0
786,0.03143999999999991,5.000707572102282,0.050770161579389975,0.06164303394292445,0
787,0.03147999999999995,5.001036362253937,0.05997627735926084,0.07081909829712923,0
788,0.03151999999999999,4.99972120164681,0.06753844396594139,0.07835097184738829,0
789,0.03156000000000003,4.999392411494816,0.07740213963881623,0.08818413329523381,0
790,0.03160000000000007,5.000049991798719,0.08726583542335548,0.09801705415035694,0
791,0.03164000000000011,5.000378781950543,0.09680074145419928,0.10752094501368889,0
792,0.03167999999999993,5.000049991798719,0.10567806785196096,0.11636701647420061,0
793,0.03171999999999997,4.99972120164681,0.11356902472517753,0.12422647911085002,0
794,0.03176000000000001,5.000378781950543,0.11850087280679227,0.1291265941290607,0
795,0.03180000000000005,4.99972120164681,0.1234327209159308,0.1340264708224948,0
796,0.03184000000000009,5.000378781950543,0.12540546016728232,0.1359670007824303,0
797,0.03187999999999991,5.000049991798719,0.12409030066589298,0.13461939459255087,0
798,0.03191999999999995,5.000049991798719,0.12244635129190345,0.13294276161368015,0
799,0.03195999999999999,5.000378781950543,0.11718571331566852,0.12764920359889806,0
800,0.03200000000000003,4.99972120164681,0.11028112601941528,0.12071146031519472,0
801,0.03204000000000007,4.999063621342738,0.10140379957517373,0.11180074242139756,0
802,0.03208000000000011,5.000707572102282,0.09219768335738154,0.10256099978077249,0
803,0.032119999999999926,5.000049991798719,0.08200519765772811,0.09233465317586348,0
804,0.032159999999999966,5.000049991798719,0.07279908164422239,0.08309444226755633,0
805,0.032200000000000006,5.000378781950543,0.06030506721035353,0.07056609944423559,0
806,0.032240000000000046,5.000049991798719,0.04978379203736312,0.06001026288405259,0
807,0.032280000000000086,5.000707572102282,0.037618567778495635,0.04781024473917217,0
808,0.032319999999999904,4.99972120164681,0.0264397132059056,0.03659636428267597,0
809,0.032359999999999944,5.000378781950543,0.015260858779241576,0.0253822524771425,0
810,0.032399999999999984,5.000049991798719,0.004739584158527918,0.014825489487525087,0
811,0.032440000000000024,5.000049991798719,-0.004466531027802631,0.005583655449180366,0
812,0.032480000000000064,5.000378781950543,-0.0116999071754995,-0.0016856695247262354,0
813,0.032520000000000104,5.000049991798719,-0.020577232363083744,-0.01059917300181381,0
814,0.03255999999999992,5.000049991798719,-0.02781060837275358,-0.017868956251395417,0
815,0.03259999999999996,5.000049991798719,-0.03438640469119987,-0.024481388245297622,0
816,0.03264,4.999392411494816,-0.039975831521371616,-0.03010767866963006,0
817,0.03268000000000004,4.99972120164681,-0.04326372963934923,-0.033432667781662845,0
818,0.03272000000000008,4.999392411494816,-0.044907678693494255,-0.03511393470898051,0
819,0.0327599999999999,4.99972120164681,-0.046551627744407784,-0.036795427989444546,0
820,0.03279999999999994,5.000049991798719,-0.04589404812443025,-0.036175618430697394,0
821,0.03283999999999998,4.99972120164681,-0.04425009907222392,-0.0345696647447492,0
822,0.03288000000000002,5.000049991798719,-0.04194857039370768,-0.032306356208916726,0
823,0.03292000000000006,5.000378781950543,-0.03964704170886384,-0.030043271912634457,0
824,0.0329600000000001,5.000378781950543,-0.03668793339048888,-0.02712283169620964,0
825,0.03299999999999992,4.99972120164681,-0.03241366580107112,-0.022887455387704016,0
826,0.03303999999999996,4.999063621342738,-0.02781060837275358,-0.018323511882901107,0
827,0.03308,5.000049991798719,-0.024851500012672237,-0.015403739550648679,0
828,0.03312000000000004,5.000378781950543,-0.01991965272276132,-0.010511449852668386,0
829,0.03316000000000008,5.000049991798719,-0.01630296469182467,-0.006934540435631478,0
830,0.033199999999999896,5.000049991798719,-0.012357486822223915,-0.003029061657851183,0
831,0.033239999999999936,5.000378781950543,-0.008412008934208556,0.0008761972063827811,0
832,0.033279999999999976,4.999392411494816,-0.006110480157705198,0.0031372875750105694,0
833,0.033320000000000016,5.000049991798719,-0.0024937920677107622,0.006713318422804676,0
834,0.033360000000000056,4.999392411494816,0.0004653163810297567,0.009631551346687785,0
835,0.033400000000000096,4.99972120164681,0.001780475694892425,0.010905617406597318,0
836,0.033439999999999914,4.999392411494816,0.00506837398845672,0.014152205272563306,0
837,0.033479999999999954,5.000378781950543,0.007041112970698912,0.01608341721089704,0
838,0.033519999999999994,5.000049991798719,0.008685062126061585,0.01768562326525612,0
839,0.033560000000000034,4.999392411494816,0.01032901128459894,0.019287613826785163,0
840,0.033600000000000074,4.99972120164681,0.011315380781244458,0.020231809793378894,0
841,0.033640000000000114,5.000049991798719,0.014274489278030808,0.02314853039189753,0
842,0.03367999999999993,5.000049991798719,0.014274489278030808,0.023105928692103192,0
843,0.03371999999999997,5.000378781950543,0.015918438447348998,0.024707062928646897,0
844,0.03376000000000001,4.999392411494816,0.018877546960101396,0.02762314384604371,0
845,0.03380000000000005,4.999392411494816,0.020521496138282788,0.02922385333853529,0
846,0.03384000000000009,4.99972120164681,0.021507865646709548,0.030166771645028012,0
847,0.03387999999999991,5.000049991798719,0.023480604666976643,0.03209584852304516,0
848,0.03391999999999995,4.99972120164681,0.025124553854007567,0.03369592520527197,0
849,0.03395999999999999,5.000049991798719,0.025782133529704057,0.034309422593200564,0
850,0.03400000000000003,5.000707572102282,0.025782133529704057,0.034265131103883004,0
851,0.03404000000000007,5.000049991798719,0.025453343691792682,0.033891841158337516,0
852,0.03408000000000011,5.000049991798719,0.025453343691792682,0.033847133017434264,0
853,0.03411999999999993,5.000049991798719,0.023480604666976643,0.03182947840530266,0
854,0.03415999999999997,4.99972120164681,0.021836655483104705,0.030140406776364176,0
855,0.03420000000000001,5.000378781950543,0.019863916466630674,0.028122339047533612,0
856,0.03424000000000005,5.001036362253937,0.017233597785083862,0.025446485978596153,0
857,0.03428000000000009,4.999392411494816,0.01295932994485767,0.02112647866999097,0
858,0.034319999999999906,5.000049991798719,0.007369902801517392,0.015491107573114206,0
859,0.034359999999999946,5.000049991798719,0.0027668451816259126,0.010841902112139673,0
860,0.034399999999999986,4.99972120164681,-0.0018362124133269458,0.006192493387943317,0
861,0.034440000000000026,5.000049991798719,-0.006110480157705198,0.0018716718273174213,0
862,0.034480000000000066,5.000378781950543,-0.012357486822223915,-0.004422090737531553,0
863,0.034520000000000106,5.000049991798719,-0.01630296469182467,-0.008414525986863458,0
864,0.034559999999999924,5.000049991798719,-0.020248442542986647,-0.012407162090720545,0
865,0.034599999999999964,5.000378781950543,-0.024851500012672237,-0.01705757807787822,0
866,0.034640000000000004,4.99972120164681,-0.027481818555480722,-0.019735454793003763,0
867,0.034680000000000044,5.000049991798719,-0.03142729635426868,-0.023728689807281884,0
868,0.034720000000000084,5.000049991798719,-0.03340003524671499,-0.02574938434498486,0
869,0.0347599999999999,4.99972120164681,-0.035043984320212454,-0.027441486878369264,0
870,0.03479999999999994,5.000049991798719,-0.03734551301769716,-0.029791366233510495,0
871,0.03483999999999998,4.99972120164681,-0.037016723204157484,-0.029511123656816907,0
872,0.03488000000000002,5.000049991798719,-0.037016723204157484,-0.02955986685255833,0
873,0.03492000000000006,5.000049991798719,-0.03668793339048888,-0.029280015571523335,0
874,0.0349600000000001,4.99972120164681,-0.035372774134525484,-0.02801398956137882,0
875,0.03499999999999992,5.000378781950543,-0.03340003524671499,-0.026090578007167117,0
876,0.03503999999999996,5.000378781950543,-0.031756086169998185,-0.024496149724730375,0
877,0.03508,5.000049991798719,-0.02781060837275358,-0.020600385553660484,0
878,0.03512000000000004,4.99972120164681,-0.024522710194243194,-0.017362393202750143,0
879,0.03516000000000008,4.99972120164681,-0.021563601822605624,-0.014453382227991245,0
880,0.0351999999999999,5.000049991798719,-0.01696054433496612,-0.00990061307269027,0
881,0.03523999999999994,4.99972120164681,-0.012686276645394332,-0.0056768240154313615,0
882,0.03527999999999998,5.000049991798719,-0.006110480157705198,0.0008483041771174121,0
883,0.03532000000000002,4.99972120164681,-0.0018362124133269458,0.005071714602330683,0
884,0.03536000000000006,5.000049991798719,0.003424424840084442,0.010281306153005938,0
885,0.0354000000000001,4.999392411494816,0.009342641789095676,0.01614828965780858,0
886,0.035439999999999916,5.000378781950543,0.014603279111640999,0.021357506438411306,0
887,0.035479999999999956,4.99972120164681,0.02085028597429857,0.027552906306765018,0
888,0.035519999999999996,5.000049991798719,0.0264397132059056,0.033090540738708527,0
889,0.035560000000000036,5.000378781950543,0.037289777936047624,0.043888627512452275,0
890,0.035600000000000076,4.999392411494816,0.04123525605372079,0.047781943167235025,0
891,0.035639999999999894,5.000049991798719,0.04781105295669137,0.0543053937526779,0
892,0.035679999999999934,5.000378781950543,0.05340048036363608,0.05984229164091931,0
893,0.035719999999999974,5.000378781950543,0.060962646912913254,0.06735174612538047,0
894,0.035760000000000014,4.99972120164681,0.06885360338252611,0.07518980864072303,0
895,0.035800000000000054,5.000049991798719,0.07805971935431567,0.08434284942703639,0
896,0.035840000000000094,5.000378781950543,0.08627946583988738,0.09250934015575879,0
897,0.03587999999999991,4.998734831190575,0.09351284281114798,0.09968928146020868,0
898,0.03591999999999995,5.000049991798719,0.10206137930871124,0.10818420304398474,0
899,0.03595999999999999,5.000378781950543,0.10929475641007817,0.11536378664914029,0
900,0.03600000000000003,4.99972120164681,0.11521297408265467,0.12122803290919532,0
901,0.03604000000000007,5.000049991798719,0.12113119179491064,0.12709210196028986,0
902,0.03608000000000011,4.999392411494816,0.12606303991870926,0.13196962484350785,0
903,0.03611999999999993,4.999063621342738,0.12967972856027796,0.13553181233584238,0
904,0.03615999999999997,5.000378781950543,0.13132367794768446,0.13712108533766615,0
905,0.03620000000000001,5.000049991798719,0.13362520709516806,0.1393677635370567,0
906,0.03624000000000005,5.000049991798719,0.1355979463691857,0.14128547797583704,0
907,0.03628000000000009,4.999392411494816,0.13329641721659097,0.13892875077774877,0
908,0.03631999999999991,5.000049991798719,0.13198125770349964,0.1375582206873116,0
909,0.03635999999999995,4.99972120164681,0.12967972856027796,0.1352011491148055,0
910,0.03639999999999999,5.000049991798719,0.12770698929941152,0.13317269625413347,0
911,0.03644000000000003,4.99972120164681,0.12474788041634353,0.13015770328365375,0
912,0.03648000000000007,4.99972120164681,0.12113119179491064,0.12648496077160992,0
913,0.03652000000000011,4.99972120164681,0.11948724242641957,0.12478478839520145,0
914,0.036559999999999926,4.99972120164681,0.11751450318826591,0.12275565771919654,0
915,0.036599999999999966,4.99972120164681,0.11324023485404966,0.11842483020604164,0
916,0.036640000000000006,5.000049991798719,0.10600685772026662,0.11113472684254702,0
917,0.036680000000000046,4.999392411494816,0.09745832118428896,0.10252929771786146,0
918,0.036720000000000086,4.99972120164681,0.08726583542335548,0.09227975370245647,0
919,0.036759999999999904,5.000049991798719,0.07477182078178243,0.0797285158353309,0
920,0.036799999999999944,4.99972120164681,0.05997627735926084,0.06487558491230214,0
921,0.036839999999999984,5.000049991798719,0.04287920527475757,0.047720961749901106,0
922,0.036880000000000024,5.000378781950543,0.025124553854007567,0.0299085963728584,0
923,0.036920000000000064,5.000049991798719,0.004739584158527918,0.009465750543112248,0
924,0.036960000000000104,4.99972120164681,-0.01630296469182467,-0.011634835917640161,0
925,0.03699999999999992,5.000049991798719,-0.03734551301769716,-0.032735582626792104,0
926,0.03703999999999996,4.99972120164681,-0.05707290159361651,-0.052521329654209734,0
927,0.03708,4.99972120164681,-0.07482755091257769,-0.07033449678682627,0
928,0.03712000000000004,5.000049991798719,-0.08830793254881113,-0.08387355489141554,0
929,0.03716000000000008,4.999392411494816,-0.0971852569206733,-0.09280971367748884,0
930,0.0371999999999999,4.99972120164681,-0.10376105268990284,-0.09944450109655695,0
931,0.03723999999999994,5.000049991798719,-0.10343226290269213,-0.09917485948320778,0
932,0.03727999999999998,5.000049991798719,-0.0998155752346823,-0.09561747580010752,0
933,0.03732000000000002,4.999392411494816,-0.09225341005923197,-0.08811476970627515,0
934,0.03736000000000006,5.000049991798719,-0.08008818767482774,-0.07600916078449912,0
935,0.0374000000000001,5.000378781950543,-0.06726538550831525,-0.06324612574457461,0
936,0.03743999999999992,4.99972120164681,-0.05279863410837703,-0.048839294416787804,0
937,0.03747999999999996,5.001036362253937,-0.03635914357669136,-0.03245987618308109,0
938,0.03752,5.000049991798719,-0.018275703619711994,-0.014436660028839223,0
939,0.03756000000000004,5.000049991798719,-0.001178632758433426,0.0026000362473392775,0
940,0.03760000000000008,4.99972120164681,0.015918438447348998,0.01963658280937565,0
941,0.037639999999999896,5.000378781950543,0.037289777936047624,0.04094724832071312,0
942,0.037679999999999936,4.999392411494816,0.051098951426982675,0.05469559922701069,0
943,0.037719999999999976,5.000049991798719,0.06227780631952985,0.06581348365528439,0
944,0.037760000000000016,5.000378781950543,0.07740213963881623,0.08087669935959671,0
945,0.037800000000000056,5.002351522859708,0.08463551653658133,0.08804881222191138,0
946,0.037840000000000096,5.000049991798719,0.09482800226688862,0.0981798882277984,0
947,0.037879999999999914,5.000707572102282,0.0971295313191825,0.10041986259948456,0
948,0.037919999999999954,5.002022732708393,0.10271895904274086,0.10594759142029946,0
949,0.037959999999999994,5.000378781950543,0.10140379957517373,0.10457058956316782,0
950,0.038000000000000034,5.000049991798719,0.10370532864470776,0.10681013349288736,0
951,0.038040000000000074,4.999392411494816,0.09482800226688862,0.09787067996282449,0
952,0.038080000000000114,4.99972120164681,0.09055373404295111,0.09353414331327783,0
953,0.03811999999999993,4.99972120164681,0.07805971935431567,0.08097771966596817,0
954,0.03815999999999997,4.999063621342738,0.06425054543319586,0.06710599699463934,0
955,0.03820000000000001,5.001693942556992,0.04945500219027131,0.05224776595272472,0
956,0.03824000000000005,5.002022732708393,0.0323579303144281,0.03508786797308097,0
957,0.03828000000000009,5.000378781950543,0.008356272294735026,0.011023246289957699,0
958,0.03831999999999991,5.000049991798719,-0.01860449344057817,-0.016000619922030994,0
959,0.03835999999999995,5.000049991798719,-0.04819557679208804,-0.045654939815880397,0
960,0.03839999999999999,5.000049991798719,-0.08008818767482774,-0.07761092255785207,0
961,0.03844000000000003,4.999392411494816,-0.1136247462448944,-0.11121098755408776,0
962,0.03848000000000007,5.000378781950543,-0.14650372390027555,-0.14415360545144254,0
963,0.03852000000000011,5.000378781950543,-0.1767523821638599,-0.1744660370205022,0
964,0.03855999999999993,5.000378781950543,-0.20437072132100315,-0.20214828179315572,0
965,0.03859999999999997,5.000049991798719,-0.2240981058461004,-0.22193970348917402,0
966,0.03864000000000001,5.000049991798719,-0.2385648541848675,-0.23647061979849737,0
967,0.03868000000000005,4.999392411494816,-0.24875733580925313,-0.24672739943615413,0
968,0.03872000000000009,5.000049991798719,-0.2500724947188839,-0.24810698564371148,0
969,0.038759999999999906,4.99972120164681,-0.24645580771209036,-0.24455485446030872,0
970,0.038799999999999946,5.000707572102282,-0.23889364391675078,-0.2370573742535078,0
971,0.038839999999999986,4.99972120164681,-0.2270572134824429,-0.22528575441145218,0
972,0.038880000000000026,5.000378781950543,-0.21390562390279633,-0.21219910166522596,0
973,0.038920000000000066,5.000707572102282,-0.19746613662137524,-0.19582467669474293,0
974,0.038960000000000106,5.000049991798719,-0.18234180802272937,-0.18076553511980423,0
975,0.038999999999999924,5.000378781950543,-0.16623110985325845,-0.1647201479209697,0
976,0.039039999999999964,5.000049991798719,-0.1501204113610753,-0.14867488357942774,0
977,0.039080000000000004,5.000707572102282,-0.1349960818721146,-0.13361611065311105,0
978,0.039120000000000044,5.000049991798719,-0.12151570100325589,-0.12020140798982641,0
979,0.039160000000000084,5.000378781950543,-0.10803531991164712,-0.10678682597658502,0
980,0.0391999999999999,5.000049991798719,-0.09850041607873007,-0.09731784132363482,0
981,0.03923999999999994,5.000049991798719,-0.08863672234206758,-0.0875201860962948,0
982,0.03927999999999998,4.99972120164681,-0.0820609264520449,-0.08101054727166333,0
983,0.03932000000000002,5.000378781950543,-0.07614271010627514,-0.07515860577303034,0
984,0.03936000000000006,5.000378781950543,-0.07219723251891826,-0.07127952003920296,0
985,0.0394000000000001,4.99972120164681,-0.06890933451510713,-0.06805813011893866,0
986,0.03943999999999992,4.99972120164681,-0.06759417530993413,-0.0668095944499385,0
987,0.03947999999999996,5.000378781950543,-0.06430627728788789,-0.0635884346382908,0
988,0.03952,5.000049991798719,-0.06529264669586828,-0.06464165615149306,0
989,0.03956000000000004,5.000049991798719,-0.06595022630053791,-0.06536620097581047,0
990,0.03960000000000008,5.000049991798719,-0.06562143649826817,-0.06510448872622865,0
991,0.0396399999999999,5.000049991798719,-0.06726538550831525,-0.06681562683963668,0
992,0.03967999999999994,5.000707572102282,-0.06858054471400928,-0.06819808591602312,0
993,0.03971999999999998,5.000378781950543,-0.07022449371819571,-0.06990944477392443,0
994,0.03976000000000002,5.000049991798719,-0.07252602231858225,-0.07227849242577877,0
995,0.03980000000000006,5.000049991798719,-0.07449876111382696,-0.07431885868402115,0
996,0.0398400000000001,5.000049991798719,-0.07482755091257769,-0.07471538357012963,0
997,0.039879999999999916,5.000378781950543,-0.07614271010627514,-0.07609838468743552,0
998,0.039919999999999956,5.000707572102282,-0.07680028970234042,-0.07682391225431784,0
999,0.039959999999999996,5.000049991798719,-0.07811544889290346,-0.07820712467293887,0
1000,0.040000000000000036,5.000049991798719,-0.08008818767482774,-0.08024802114927598,0
1001,0.040040000000000076,4.99972120164681,-0.08008818767482774,-0.0803162825182462,0
1002,0.040080000000000116,4.99972120164681,-0.07943060808137585,-0.07972706717562018,0
1003,0.040119999999999933,5.000378781950543,-0.07943060808137585,-0.07979553351470292,0
1004,0.040159999999999973,4.99972120164681,-0.07943060808137585,-0.07986410114755371,0
1005,0.040200000000000014,5.000378781950543,-0.07943060808137585,-0.07993276927880075,0
1006,0.040240000000000054,5.000049991798719,-0.07877302848740105,-0.07934395751822167,0
1007,0.040280000000000094,5.000049991798719,-0.07877302848740105,-0.07941282425664975,0
1008,0.04031999999999991,4.99972120164681,-0.0791018182844538,-0.07981057889918498,0
1009,0.04035999999999995,5.000378781950543,-0.07844423869021762,-0.07922206145865322,0
1010,0.04039999999999999,4.99972120164681,-0.07877302848740105,-0.07962000991808313,0
1011,0.04044000000000003,5.000378781950543,-0.07680028970234042,-0.07771652550329089,0
1012,0.04048000000000007,5.000049991798719,-0.07614271010627514,-0.07712829518416253,0
1013,0.04052000000000011,5.000707572102282,-0.07614271010627514,-0.07719773856558856,0
1014,0.04055999999999993,5.000378781950543,-0.07482755091257769,-0.07595211605480812,0
1015,0.04059999999999997,4.99972120164681,-0.07384118151593398,-0.07503537583876269,0
1016,0.04064000000000001,4.99972120164681,-0.07318360191751903,-0.07444751711401307,0
1017,0.04068000000000005,5.000378781950543,-0.0715396529191989,-0.07287337987701376,0
1018,0.04072000000000009,4.999392411494816,-0.07088207331895803,-0.07228570211954752,0
1019,0.04075999999999991,5.000378781950543,-0.07088207331895803,-0.07235569323679134,0
1020,0.04079999999999995,4.99972120164681,-0.07022449371819571,-0.07176819321998146,0
1021,0.04083999999999999,5.000049991798719,-0.06989570391761903,-0.07150957066153657,0
1022,0.04088000000000003,5.000049991798719,-0.06792296511142272,-0.06960708594636066,0
1023,0.04092000000000007,5.000049991798719,-0.06890933451510713,-0.07066379547990884,0
1024,0.04096000000000011,5.000049991798719,-0.06759417530993413,-0.06941906163265064,0
1025,0.040999999999999925,5.000707572102282,-0.06562143649826817,-0.06751683259541838,0
1026,0.041039999999999965,5.000049991798719,-0.06463506709067811,-0.06660105656651623,0
1027,0.041080000000000005,5.000049991798719,-0.06331990787873677,-0.0653565735245269,0
1028,0.041120000000000045,5.000378781950543,-0.06101837925283336,-0.06312580304613152,0
1029,0.041160000000000085,5.000049991798719,-0.059703220035172325,-0.06188148313911585,0
1030,0.0411999999999999,4.99972120164681,-0.056415321981929514,-0.058664504744533726,0
1031,0.04123999999999994,4.99972120164681,-0.054113793336938706,-0.05643397529040091,0
1032,0.04127999999999998,5.000049991798719,-0.05181226468559495,-0.054203524545605786,0
1033,0.04132000000000002,5.000378781950543,-0.0491819462191435,-0.05164436188420553,0
1034,0.04136000000000006,4.99972120164681,-0.048853156410254436,-0.05138680496100803,0
1035,0.0414000000000001,5.000707572102282,-0.04786678698281073,-0.05047174468136732,0
1036,0.04143999999999992,5.000378781950543,-0.046551627744407784,-0.04922797003369056,0
1037,0.04147999999999996,4.99972120164681,-0.04523646850393555,-0.04798427000702755,0
1038,0.04152,5.001036362253937,-0.0445788888829237,-0.04739822340242324,0
1039,0.04156000000000004,5.000049991798719,-0.04425009907222392,-0.04714103958960734,0
1040,0.04160000000000008,5.000049991798719,-0.04326372963934923,-0.04622634831434098,0
1041,0.0416399999999999,5.000049991798719,-0.04129099077011207,-0.04432535894006217,0
1042,0.04167999999999994,5.000049991798719,-0.04030462133375036,-0.04341080951301929,0
1043,0.04171999999999998,5.000378781950543,-0.03800309264438971,-0.041181170523740686,0
1044,0.04176000000000002,5.000378781950543,-0.035372774134525484,-0.038622810580524046,0
1045,0.04180000000000006,5.000378781950543,-0.033071245431629134,-0.03639330848605018,0
1046,0.0418400000000001,5.000049991798719,-0.029783347273691016,-0.03317750415293322,0
1047,0.04187999999999992,5.000378781950543,-0.027481818555480722,-0.03094813564998837,0
1048,0.04191999999999996,4.999392411494816,-0.024193920375685754,-0.02773246324937799,0
1049,0.04196,4.99972120164681,-0.020577232363083744,-0.024188065752791196,0
1050,0.04200000000000004,4.99972120164681,-0.017289334156344746,-0.020972521971253634,0
1051,0.04204000000000008,5.000378781950543,-0.014001435936796827,-0.017757041257900466,0
1052,0.042079999999999895,5.000378781950543,-0.010055958056451306,-0.013884043136009036,0
1053,0.042119999999999935,5.000378781950543,-0.007096849634115457,-0.010997475895118989,0
1054,0.042159999999999975,5.000049991798719,-0.003808951374948702,-0.007782179410595896,0
1055,0.042200000000000015,4.999392411494816,0.0014516858662357995,-0.002594203706940296,0
1056,0.042240000000000055,4.99972120164681,0.005725953648695714,0.001607343605929401,0
1057,0.042280000000000095,4.99972120164681,0.011315380781244458,0.0071239921681543646,0
1058,0.04231999999999991,5.000378781950543,0.019863916466630674,0.01559969201430736,0
1059,0.04235999999999995,5.000049991798719,0.027426082721154613,0.02308896599300156,0
1060,0.04239999999999999,5.000049991798719,0.03564582872569445,0.031235764117909376,0
1061,0.04244000000000003,5.000378781950543,0.04452315449893275,0.04004008724098138,0
1062,0.04248000000000007,5.001036362253937,0.05471563975876172,0.050159515913844016,0
1063,0.04252000000000011,4.99972120164681,0.06425054543319586,0.05962131189870469,0
1064,0.04255999999999993,5.000378781950543,0.07214150193269635,0.06743910644066871,0
1065,0.04259999999999997,4.99972120164681,0.08167640779842875,0.07690079891598946,0
1066,0.04264000000000001,4.99972120164681,0.09055373404295111,0.08570486117274907,0
1067,0.04268000000000005,4.99972120164681,0.09745832118428896,0.09253613456492601,0
1068,0.04272000000000009,5.000049991798719,0.10567806785196096,0.10068251855841302,0
1069,0.04275999999999991,5.000378781950543,0.10797959693268015,0.10291063687671095,0
1070,0.04279999999999995,5.000378781950543,0.10863717667113368,0.1034947586017008,0
1071,0.04283999999999999,5.000049991798719,0.10732201719471773,0.10210609469837119,0
1072,0.04288000000000003,5.000049991798719,0.10239016917566456,0.09710069667693777,0
1073,0.04292000000000007,4.99972120164681,0.095485581995499,0.09012251475729223,0
1074,0.04296000000000011,5.000049991798719,0.08529309625753255,0.07985639038148859,0
1075,0.04299999999999993,4.99972120164681,0.07510061063847716,0.06959022306534952,0
1076,0.04303999999999997,4.99972120164681,0.0626065961714958,0.05702248468150933,0
1077,0.04308000000000001,5.000378781950543,0.050112581884580176,0.04445470509778389,0
1078,0.04312000000000005,5.000049991798719,0.037618567778495635,0.031886885155107875,0
1079,0.04316000000000009,4.99972120164681,0.027097292882612076,0.021291764723358128,0
1080,0.043199999999999905,4.99972120164681,0.018877546960101396,0.012998134406543564,0
1081,0.043239999999999945,4.99972120164681,0.010986590948902406,0.0050332559837625015,0
1082,0.043279999999999985,5.000049991798719,0.006383533309443135,0.0003562387569173318,0
1083,0.043320000000000025,4.99972120164681,0.0027668451816259126,-0.0033344452923080355,0
1084,0.043360000000000065,5.000049991798719,0.0027668451816259126,-0.0034084767056572728,0
1085,0.043400000000000105,5.000378781950543,0.0021092655236763236,-0.0041401224265241,0
1086,0.04343999999999992,5.001036362253937,0.003424424840084442,-0.002899062979943856,0
1087,0.04347999999999996,5.000378781950543,0.006054743479005864,-0.0003428771748269794,0
1088,0.04352,5.000378781950543,0.009671431620803153,0.0031996460123919932,0
1089,0.04356000000000004,4.999392411494816,0.013945699444547363,0.0073997176042482704,0
1090,0.04360000000000008,4.99972120164681,0.019206336795484613,0.012586128289705695,0
1091,0.0436399999999999,5.000378781950543,0.025782133529704057,0.019087668768817026,0
1092,0.04367999999999994,5.000378781950543,0.03202914047399413,0.02526039071257248,0
1093,0.04371999999999998,5.000378781950543,0.037618567778495635,0.03077550511554515,0
1094,0.04376000000000002,4.99972120164681,0.04222162558596615,0.03530422296514773,0
1095,0.04380000000000006,5.000378781950543,0.04846863264974746,0.0414768638595923,0
1096,0.0438400000000001,5.000707572102282,0.052085320970511856,0.04501916064462888,0
1097,0.04387999999999992,5.000049991798719,0.05603079915588792,0.048890222773163544,0
1098,0.04391999999999996,4.99972120164681,0.06063385706157101,0.05341884094636122,0
1099,0.04396,5.000049991798719,0.06457933528590981,0.05728985660822451,0
1100,0.04400000000000004,5.000049991798719,0.0672096541121064,0.05984569088778616,0
1101,0.04404000000000008,5.000049991798719,0.06983997294627126,0.0624015040371562,0
1102,0.0440799999999999,5.000049991798719,0.07247029178839723,0.06495729690248822,0
1103,0.04411999999999994,5.000378781950543,0.0757581903522391,0.06817065004385112,0
1104,0.04415999999999998,5.000378781950543,0.07805971935431567,0.07039761502422343,0
1105,0.04420000000000002,5.000378781950543,0.08036124836247038,0.07262456225804612,0
1106,0.04424000000000006,5.000049991798719,0.08332035709616414,0.07550907231150755,0
1107,0.0442800000000001,5.000049991798719,0.08496430639699507,0.07707840687305542,0
1108,0.044319999999999915,5.000378781950543,0.08562188611819377,0.07766135664288423,0
1109,0.044359999999999955,5.000049991798719,0.08660825570091973,0.07857308190922381,0
1110,0.044399999999999995,5.000049991798719,0.08496430639699507,0.07685447477106541,0
1111,0.044440000000000035,5.000049991798719,0.08167640779842875,0.07349190566767805,0
1112,0.044480000000000075,4.99972120164681,0.0770733497812526,0.06881416532243696,0
1113,0.044520000000000115,4.99972120164681,0.07049755265605667,0.062163674893351194,0
1114,0.04455999999999993,5.001036362253937,0.06490812513874837,0.05649954394381483,0
1115,0.04459999999999997,5.000378781950543,0.05931869765744993,0.05083540374949659,0
1116,0.04464000000000001,4.99972120164681,0.05537321945707481,0.04681520440290853,0
1117,0.04468000000000005,5.000049991798719,0.04912621234330475,0.0404934685573753,0
1118,0.04472000000000009,4.99972120164681,0.043865574808886185,0.035158095553322846,0
1119,0.04475999999999991,4.999392411494816,0.04123525605372079,0.032453035438361144,0
1120,0.04479999999999995,4.99972120164681,0.03860493730659416,0.029747970289005086,0
1121,0.04483999999999999,5.001036362253937,0.034988249042434,0.02605653142792483,0
1122,0.04488000000000003,4.99972120164681,0.0313715607935042,0.022365089235132023,0
1123,0.04492000000000007,4.99972120164681,0.029398821755059465,0.02031759375362668,0
1124,0.04496000000000011,5.000378781950543,0.026110923367741706,0.016954937271785715,0
1125,0.04499999999999993,4.99972120164681,0.024138184341410046,0.014907439347185199,0
1126,0.04503999999999997,4.99972120164681,0.02117907581044083,0.011873571961892513,0
1127,0.04508000000000001,4.99972120164681,0.019206336795484613,0.00982607498421555,0
1128,0.04512000000000005,4.99972120164681,0.016904807950460177,0.007449789915688926,0
1129,0.04516000000000009,5.000378781950543,0.013945699444547363,0.0044159277730590266,0
1130,0.04519999999999991,5.000378781950543,0.012630540111881347,0.003026018237970489,0
1131,0.04523999999999995,5.000049991798719,0.01032901128459894,0.000649743490004677,0
1132,0.04527999999999999,5.000049991798719,0.008685062126061585,-0.0010689464601051565,0
1133,0.04532000000000003,4.99972120164681,0.009013851957515154,-0.0008148914438218177,0
1134,0.04536000000000007,5.000049991798719,0.008685062126061585,-0.0012184092668403451,0
1135,0.04540000000000011,4.99972120164681,0.009342641789095676,-0.000635549924659029,0
1136,0.045439999999999925,4.999392411494816,0.01065780111668721,0.0006048975997949083,0
1137,0.045479999999999965,5.000049991798719,0.010986590948902406,0.0008589849934789104,0
1138,0.045520000000000005,4.99972120164681,0.012301750279031881,0.0020994520964551996,0
1139,0.045560000000000045,5.000707572102282,0.015260858779241576,0.0049838794275339215,0
1140,0.045600000000000085,4.99972120164681,0.016904807950460177,0.0065531593341527465,0
1141,0.0456399999999999,4.99972120164681,0.019863916466630674,0.009437611336620615,0
1142,0.04567999999999994,5.000049991798719,0.021507865646709548,0.011006917600109033,0
1143,0.04571999999999998,5.000378781950543,0.024795764016348754,0.014220187496326163,0
1144,0.04576000000000002,5.000049991798719,0.02676850304419573,0.01611831333980904,0
1145,0.04580000000000006,5.000049991798719,0.030056401434036775,0.01933161468005917,0
1146,0.0458400000000001,5.000049991798719,0.0323579303144281,0.021558563491165677,0
1147,0.04587999999999992,5.000378781950543,0.034988249042434,0.024114319975535665,0
1148,0.04591999999999996,5.000378781950543,0.037618567778495635,0.026670095138755172,0
1149,0.04596,4.99972120164681,0.04189283574175878,0.0308698390449091,0
1150,0.04600000000000004,4.99972120164681,0.045509524034943585,0.03441202364144302,0
1151,0.04604000000000008,5.000049991798719,0.048139842803156765,0.03696785991796759,0
1152,0.0460799999999999,5.000707572102282,0.05701716870504489,0.045770725377403995,0
1153,0.04611999999999994,5.000378781950543,0.060962646912913254,0.049641766036094916,0
1154,0.04615999999999998,4.997748460733576,0.06951118309156513,0.058115888402636,0
1155,0.04620000000000002,4.99972120164681,0.07214150193269635,0.06067181801226254,0
1156,0.04624000000000006,5.000378781950543,0.08266277737669843,0.0711187296486449,0
1157,0.0462800000000001,4.998406041038327,0.08332035709616414,0.07170197182738602,0
1158,0.04631999999999992,5.002351522859708,0.08792341514628582,0.07623071944641215,0
1159,0.04635999999999996,4.999063621342738,0.09285526308401794,0.0810882849051274,0
1160,0.0464,5.001693942556992,0.095485581995499,0.08364435013182794,0
1161,0.04644000000000004,5.002680313010939,0.0971295313191825,0.08521407540682516,0
1162,0.04648000000000008,5.001036362253937,0.09778711104951865,0.08579746156611939,0
1163,0.046519999999999895,5.001036362253937,0.10008864010957542,0.08802482837401347,0
1164,0.046559999999999935,4.999392411494816,0.09943106037751487,0.08729311854958091,0
1165,0.046599999999999975,5.000049991798719,0.09844469078034762,0.08623265186041268,0
1166,0.046640000000000015,5.000378781950543,0.09877348064594688,0.08648737847462326,0
1167,0.046680000000000055,5.000378781950543,0.09581437185998914,0.08345424111778359,0
1168,0.046720000000000095,5.000049991798719,0.095485581995499,0.08305145820245803,0
1169,0.04675999999999991,4.99972120164681,0.09252647322063803,0.08001839273598571,0
1170,0.04679999999999995,5.000049991798719,0.0902249441804355,0.07764294420220329,0
1171,0.04683999999999999,5.000378781950543,0.08595067597897872,0.07329479454362756,0
1172,0.04688000000000003,4.99972120164681,0.08036124836247038,0.0676315243445049,0
1173,0.04692000000000007,5.000049991798719,0.07838850921225148,0.06558498232382637,0
1174,0.04696000000000011,5.000378781950543,0.07510061063847716,0.06222332142899588,0
1175,0.04699999999999993,4.999392411494816,0.07214150193269635,0.05919049178840184,0
1176,0.04703999999999997,5.000049991798719,0.07115513236633955,0.05813044350989736,0
1177,0.04708000000000001,5.000378781950543,0.06983997294627126,0.05674164843634473,0
1178,0.04712000000000005,4.99972120164681,0.06983997294627126,0.056668056677088886,0
1179,0.04716000000000009,5.000049991798719,0.0714839222216675,0.058238458922582316,0
1180,0.04719999999999991,4.99972120164681,0.07247029178839723,0.059151327023438324,0
1181,0.04723999999999995,4.99972120164681,0.07411424106876553,0.060721821236181805,0
1182,0.04727999999999999,5.000049991798719,0.07542940049529606,0.061963572827092195,0
1183,0.04732000000000003,5.000378781950543,0.0760869802093063,0.06254779277077102,0
1184,0.04736000000000007,5.000378781950543,0.07641577006649763,0.06280327175572406,0
1185,0.04740000000000011,5.000049991798719,0.07510061063847716,0.06141485118587539,0
1186,0.04743999999999993,5.000378781950543,0.07181271207711976,0.05805374204492158,0
1187,0.04747999999999997,4.999392411494816,0.07082634251113593,0.056994213292891824,0
1188,0.04752000000000001,5.000378781950543,0.06490812513874837,0.05100288895881672,0
1189,0.04756000000000005,4.99972120164681,0.06063385706157101,0.046655566974599424,0
1190,0.04760000000000009,5.000049991798719,0.05635958900548195,0.042308298895880836,0
1191,0.047639999999999905,4.99972120164681,0.04846863264974746,0.034344397231155746,0
1192,0.047679999999999945,5.000049991798719,0.04255041543029908,0.028353290245042143,0
1193,0.047719999999999985,5.000378781950543,0.03663219825152894,0.02236223967006882,0
1194,0.047760000000000025,5.000049991798719,0.028741242076586612,0.014398507296964513,0
1195,0.047800000000000065,5.000378781950543,0.025124553854007567,0.010709100901278565,0
1196,0.047840000000000105,5.000378781950543,0.01953512663099438,0.0050470143566542225,0
1197,0.04787999999999992,4.99972120164681,0.015918438447348998,0.0013577265287530865,0
1198,0.04791999999999996,5.000378781950543,0.012630540111881347,-0.002002710948344158,0
1199,0.04796,4.99972120164681,0.010000221452637598,-0.0047055074219172766,0
1200,0.04800000000000004,4.99972120164681,0.008685062126061585,-0.00609308241145301,0
1201,0.04804000000000008,5.000049991798719,0.008356272294735026,-0.006494224930912659,0
1202,0.0480799999999999,5.000049991798719,0.008685062126061585,-0.0062377239900558434,0
1203,0.04811999999999994,5.000049991798719,0.010000221452637598,-0.004994788934077579,0
1204,0.04815999999999998,5.000378781950543,0.012301750279031881,-0.0027654189368362253,0
1205,0.04820000000000002,5.000049991798719,0.012301750279031881,-0.002837511503614998,0
1206,0.04824000000000006,5.000378781950543,0.014932068945377922,-0.0002792183213955607,0
1207,0.0482800000000001,4.99972120164681,0.018548757124844717,0.003265512276215715,0
1208,0.04831999999999992,4.999392411494816,0.022494235156274286,0.0071391014470129355,0
1209,0.04835999999999996,4.99972120164681,0.0264397132059056,0.011012760175512441,0
1210,0.0484,5.000378781950543,0.0313715607935042,0.015872858799074685,0
1211,0.04844000000000004,5.000049991798719,0.03597461856751347,0.02040423878304768,0
1212,0.04848000000000008,4.999392411494816,0.04123525605372079,0.02559327046942539,0
1213,0.0485199999999999,5.000049991798719,0.045838313880531376,0.03012479530211378,0
1214,0.04855999999999994,5.000378781950543,0.05175653112254362,0.035971553170498556,0
1215,0.04859999999999998,4.99972120164681,0.056688378855200935,0.04083201596408914,0
1216,0.04864000000000002,5.000049991798719,0.060962646912913254,0.04503497433063241,0
1217,0.04868000000000006,5.000378781950543,0.06359296572814185,0.04759405951518986,0
1218,0.0487200000000001,5.000378781950543,0.06523691499171154,0.04916685202044216,0
1219,0.048759999999999915,5.000049991798719,0.06786723381990087,0.05172609177377173,0
1220,0.048799999999999955,5.000378781950543,0.06688086425839593,0.050668721631208696,0
1221,0.048839999999999995,5.000378781950543,0.06490812513874837,0.04862506123388115,0
1222,0.048880000000000035,4.99972120164681,0.06392175558060653,0.0475678505102386,0
1223,0.048920000000000075,4.99972120164681,0.060962646912913254,0.04453798159724223,0
1224,0.048960000000000115,4.99972120164681,0.05635958900548195,0.039864245171933266,0
1225,0.04899999999999993,5.000378781950543,0.050112581884580176,0.03354664206700893,0
1226,0.04903999999999997,4.99972120164681,0.043865574808886185,0.0272291223467713,0
1227,0.04908000000000001,5.000049991798719,0.037947357621069405,0.021240476658700234,0
1228,0.04912000000000005,4.999392411494816,0.0313715607935042,0.014594336279159396,0
1229,0.04916000000000009,4.99972120164681,0.02315181482994949,0.006304332515068345,0
1230,0.04919999999999991,4.99972120164681,0.017233597785083862,0.00031594422342989814,0
1231,0.04923999999999995,5.000378781950543,0.01032901128459894,-0.006658726168584192,0
1232,0.04927999999999999,5.000049991798719,0.003753214669504526,-0.013304518519335715,0
1233,0.04932000000000003,5.000049991798719,-0.0031513717215847087,-0.02027901169044087,0
1234,0.04936000000000007,5.000378781950543,-0.0090695885834889,-0.02626704557781745,0
1235,0.04940000000000011,5.000049991798719,-0.013343856291351444,-0.030611039758581066,0
1236,0.04943999999999993,4.99972120164681,-0.017946913798717698,-0.03528373238913138,0
1237,0.04947999999999997,5.000378781950543,-0.021234812002893247,-0.03864117357051802,0
1238,0.04952000000000001,5.000049991798719,-0.023865130556999917,-0.04134094216050431,0
1239,0.04956000000000005,4.99972120164681,-0.026824238920549456,-0.0443694068241484,0
1240,0.04960000000000009,5.000049991798719,-0.028468188006913683,-0.046082617681280955,0
1241,0.049639999999999906,5.000049991798719,-0.028796977823800904,-0.04648057394698907,0
1242,0.049679999999999946,4.99972120164681,-0.030769716722423582,-0.04852238318079152,0
1243,0.049719999999999986,4.99972120164681,-0.030769716722423582,-0.048591356611571684,0
1244,0.049760000000000026,5.000049991798719,-0.03208487598559902,-0.04997539161131212,0
1245,0.049800000000000066,5.000049991798719,-0.03274245561641449,-0.05070174849561235,0
1246,0.049840000000000106,5.000049991798719,-0.03208487598559902,-0.050112846847294154,0
1247,0.049879999999999924,5.000049991798719,-0.03340003524671499,-0.05149658403297795,0
1248,0.049919999999999964,4.99972120164681,-0.033071245431629134,-0.05123627129856147,0
1249,0.049960000000000004,5.000049991798719,-0.03340003524671499,-0.051633436565429916,0
1250,0.050000000000000044,5.000049991798719,-0.033071245431629134,-0.05137291978923941,0
1251,0.050040000000000084,4.99972120164681,-0.03208487598559902,-0.05045472018621239,0
1252,0.0500799999999999,4.99972120164681,-0.03208487598559902,-0.05052278605132095,0
1253,0.05011999999999994,4.99972120164681,-0.03208487598559902,-0.050590747157542984,0
1254,0.05015999999999998,5.000049991798719,-0.030112137090063842,-0.04868586382936914,0
1255,0.05020000000000002,4.99972120164681,-0.029783347273691016,-0.04842482326254785,0
1256,0.05024000000000006,5.000049991798719,-0.029125767640559533,-0.04783488578324184,0
1257,0.0502800000000001,4.999392411494816,-0.02781060837275358,-0.04658726079665902,0
1258,0.05031999999999992,5.000707572102282,-0.02715302873807933,-0.045997106794776726,0
1259,0.05035999999999996,4.99972120164681,-0.025837869467188898,-0.04474926373347289,0
1260,0.0504,4.99972120164681,-0.024522710194243194,-0.04350131047319668,0
1261,0.05044000000000004,5.000049991798719,-0.0228787611001723,-0.04192445642223619,0
1262,0.05048000000000008,4.99972120164681,-0.021892391642189743,-0.041005070266239965,0
1263,0.0505199999999999,5.000049991798719,-0.020577232363083744,-0.039756781777515876,0
1264,0.05055999999999994,5.000378781950543,-0.018933283261316228,-0.03817959018513724,0
1265,0.05059999999999998,4.999392411494816,-0.0166317545134594,-0.03594470489738681,0
1266,0.05064000000000002,5.000049991798719,-0.013343856291351444,-0.03272333531891995,0
1267,0.05068000000000006,5.000707572102282,-0.013672646114138112,-0.03311853820281353,0
1268,0.0507200000000001,4.99972120164681,-0.012357486822223915,-0.03186967562452457,0
1269,0.050759999999999916,4.999392411494816,-0.011042327528263687,-0.030620695932889033,0
1270,0.050799999999999956,5.000707572102282,-0.00874079875891258,-0.028385228891879166,0
1271,0.050839999999999996,5.000049991798719,-0.006768059808773,-0.02647843303455784,0
1272,0.050880000000000036,5.000378781950543,-0.005781690331979852,-0.02555788725467094,0
1273,0.050920000000000076,5.000378781950543,-0.00348016154833046,-0.02332206201278461,0
1274,0.050960000000000116,4.99972120164681,-0.002165002240582567,-0.022072485333590366,0
1275,0.050999999999999934,5.000049991798719,-0.0015074225859438989,-0.021480366637402035,0
1276,0.051039999999999974,5.000378781950543,0.0004653163810297567,-0.01957296620306115,0
1277,0.051080000000000014,4.999392411494816,0.0014516858662357995,-0.018651812070142895,0
1278,0.051120000000000054,5.000049991798719,0.0027668451816259126,-0.01740174417336228,0
1279,0.051160000000000094,4.99972120164681,0.004410794328726292,-0.015822761759061194,0
1280,0.05119999999999991,5.000378781950543,0.006054743479005864,-0.014243653904847435,0
1281,0.05123999999999995,4.99972120164681,0.008027482463535476,-0.012335630029942798,0
1282,0.05127999999999999,5.000049991798719,0.009013851957515154,-0.01141384871066288,0
1283,0.05132000000000003,5.000378781950543,0.01065780111668721,-0.009834360044011267,0
1284,0.05136000000000007,4.99972120164681,0.011315380781244458,-0.009241112443778544,0
1285,0.05140000000000011,5.000378781950543,0.01328811977796078,-0.00733257633841896,0
1286,0.05143999999999993,5.000049991798719,0.013945699444547363,-0.006739069646701151,0
1287,0.05147999999999997,4.99972120164681,0.015260858779241576,-0.005487852628126351,0
1288,0.05152000000000001,5.000378781950543,0.015589648613231935,-0.00522287371051048,0
1289,0.05156000000000005,4.99972120164681,0.015918438447348998,-0.004957762653300328,0
1290,0.05160000000000009,4.99972120164681,0.015918438447348998,-0.0050213085522970505,0
1291,0.05163999999999991,5.000049991798719,0.014932068945377922,-0.006071090338199185,0
1292,0.05167999999999995,5.000049991798719,0.014274489278030808,-0.006791947938550619,0
1293,0.05171999999999999,4.99972120164681,0.01295932994485767,-0.008170250119241725,0
1294,0.05176000000000003,4.99972120164681,0.01328811977796078,-0.00790446731491913,0
1295,0.05180000000000007,4.99972120164681,0.012630540111881347,-0.008624917459106131,0
1296,0.05184000000000011,4.99972120164681,0.01065780111668721,-0.010660389651122017,0
1297,0.051879999999999926,4.99972120164681,0.01032901128459894,-0.011051774669463,0
1298,0.051919999999999966,4.99972120164681,0.009342641789095676,-0.012100600612703433,0
1299,0.051960000000000006,4.999392411494816,0.007369902801517392,-0.014135656582900405,0
1300,0.052000000000000046,5.000049991798719,0.007369902801517392,-0.014197833375148294,0
1301,0.052040000000000086,5.000378781950543,0.006054743479005864,-0.015575028575642233,0
1302,0.052079999999999904,5.000049991798719,0.00506837398845672,-0.016623292307378204,0
1303,0.052119999999999944,5.000049991798719,0.003753214669504526,-0.018000203509563106,0
1304,0.052159999999999984,4.99972120164681,0.0014516858662357995,-0.02036334111833056,0
1305,0.052200000000000024,5.000049991798719,0.0021092655236763236,-0.01976722647026051,0
1306,0.052240000000000064,4.99972120164681,-0.001178632758433426,-0.023116445248610742,0
1307,0.052280000000000104,4.99972120164681,-0.002165002240582567,-0.02416398999826813,0
1308,0.05231999999999992,4.99972120164681,-0.0024937920677107622,-0.024553809149976333,0
1309,0.05235999999999996,5.000049991798719,-0.0031513717215847087,-0.025272271472719043,0
1310,0.0524,5.000707572102282,-0.005781690331979852,-0.027963325384908644,0
1311,0.05244000000000004,4.99972120164681,-0.005781690331979852,-0.028023912609692544,0
1312,0.05248000000000008,4.99972120164681,-0.006439269983302923,-0.028741930700286536,0
1313,0.0525199999999999,4.99972120164681,-0.00874079875891258,-0.031103748422592323,0
1314,0.05255999999999994,4.999392411494816,-0.0090695885834889,-0.03149267699567561,0
1315,0.05259999999999998,5.000049991798719,-0.010055958056451306,-0.03253903431479578,0
1316,0.05264000000000002,4.99972120164681,-0.0116999071754995,-0.0342428196749537,0
1317,0.05268000000000006,5.001365152405508,-0.012357486822223915,-0.034960083256508775,0
1318,0.0527200000000001,5.000049991798719,-0.014330225759327644,-0.03699235312240792,0
1319,0.05275999999999992,5.000049991798719,-0.014987805404005308,-0.03770930999157131,0
1320,0.05279999999999996,5.000049991798719,-0.01597417487006185,-0.03875490228101784,0
1321,0.05284,5.000378781950543,-0.01696054433496612,-0.03980033947292552,0
1322,0.05288000000000004,5.000049991798719,-0.0166317545134594,-0.039530461588246676,0
1323,0.05292000000000008,4.999392411494816,-0.018933283261316228,-0.04189074579047561,0
1324,0.052959999999999896,5.000378781950543,-0.017618123977595282,-0.040634184787906175,0
1325,0.052999999999999936,5.000378781950543,-0.018275703619711994,-0.04135020484871127,0
1326,0.053039999999999976,4.99972120164681,-0.01860449344057817,-0.04173727653808906,0
1327,0.053080000000000016,4.99972120164681,-0.0166317545134594,-0.039822660243127,0
1328,0.053120000000000056,4.99972120164681,-0.0166317545134594,-0.039880622954292885,0
1329,0.053160000000000096,5.000049991798719,-0.01630296469182467,-0.03960963523974606,0
1330,0.053199999999999914,4.99972120164681,-0.014659015581730453,-0.03802332695113002,0
1331,0.053239999999999954,4.999392411494816,-0.014001435936796827,-0.03742322616209513,0
1332,0.053279999999999994,5.000378781950543,-0.012686276645394332,-0.036165383082610816,0
1333,0.053320000000000034,5.000049991798719,-0.012028696998925656,-0.03556495632725373,0
1334,0.053360000000000074,5.000378781950543,-0.011042327528263687,-0.034635575751652395,0
1335,0.053400000000000114,5.000049991798719,-0.00939837840793746,-0.033048450856679554,0
1336,0.05343999999999993,5.000049991798719,-0.00874079875891258,-0.03244753009123903,0
1337,0.05347999999999997,5.000378781950543,-0.0090695885834889,-0.032832812787170026,0
1338,0.05352000000000001,5.000707572102282,-0.00874079875891258,-0.032560349152865764,0
1339,0.05356000000000005,5.000049991798719,-0.007425639459330238,-0.031301348695234085,0
1340,0.05360000000000009,4.99972120164681,-0.005781690331979852,-0.029713390395894893,0
1341,0.05363999999999991,5.000378781950543,-0.006768059808773,-0.03075558202276872,0
1342,0.05367999999999995,5.000378781950543,-0.006110480157705198,-0.030153655181493502,0
1343,0.05371999999999999,5.000049991798719,-0.005124110680146385,-0.029222768512721486,0
1344,0.05376000000000003,5.000049991798719,-0.006110480157705198,-0.030264450138989984,0
1345,0.05380000000000007,4.99972120164681,-0.005781690331979852,-0.029990801144478718,0
1346,0.05384000000000011,5.000378781950543,-0.005124110680146385,-0.029388190350604568,0
1347,0.05387999999999993,5.000378781950543,-0.0047953208540382625,-0.02911419675510747,0
1348,0.05391999999999997,5.000049991798719,-0.005124110680146385,-0.029497609532056934,0
1349,0.05396000000000001,5.000049991798719,-0.00348016154833046,-0.02790810942056976,0
1350,0.05400000000000005,5.000049991798719,-0.003808951374948702,-0.028291173687946286,0
1351,0.05404000000000009,5.000378781950543,-0.00348016154833046,-0.028016483075149326,0
1352,0.054079999999999906,5.000049991798719,-0.00348016154833046,-0.02807040641636467,0
1353,0.054119999999999946,5.000049991798719,-0.0031513717215847087,-0.027795363414263197,0
1354,0.054159999999999986,5.000378781950543,-0.0008498429307955274,-0.025547404289292114,0
1355,0.054200000000000026,4.99972120164681,-0.0005210531030302584,-0.02527200632797994,0
1356,0.054240000000000066,5.000049991798719,-0.0015074225859438989,-0.02631158923916535,0
1357,0.054280000000000106,5.000707572102282,-0.00019226327513760522,-0.025049464281361934,0
1358,0.054319999999999924,4.999392411494816,-0.0005210531030302584,-0.025431108751636046,0
1359,0.054359999999999964,5.000378781950543,0.001122896037706475,-0.02383983390904812,0
1360,0.054400000000000004,4.99972120164681,0.001780475694892425,-0.023234747573914603,0
1361,0.054440000000000044,5.000378781950543,-0.00019226327513760522,-0.025259798259790557,0
1362,0.054480000000000084,5.001036362253937,0.00013652655288240445,-0.02498313791305968,0
1363,0.0545199999999999,5.001365152405508,-0.0015074225859438989,-0.02667903367203389,0
1364,0.05455999999999994,5.000707572102282,0.0004653163810297567,-0.024758057839254638,0
1365,0.05459999999999998,5.001036362253937,-0.002165002240582567,-0.027439955486073767,0
1366,0.05464000000000002,5.002351522859708,0.0024380553525874815,-0.02288829218787322,0
1367,0.05468000000000006,4.999063621342738,0.00013652655288240445,-0.025241029932851128,0
1368,0.0547200000000001,4.998406041038327,0.0024380553525874815,-0.02299052411105921,0
1369,0.05475999999999992,5.001693942556992,0.0004653163810297567,-0.025014099477309905,0
1370,0.05479999999999996,4.998734831190575,0.0021092655236763236,-0.023420799532083987,0
1371,0.05484,4.998406041038327,0.0007941062093044515,-0.02478642023436633,0
1372,0.05488000000000004,5.001693942556992,0.0027668451816259126,-0.022863954230027593,0
1373,0.05492000000000008,5.001036362253937,0.001780475694892425,-0.023900407656224802,0
1374,0.0549599999999999,4.99972120164681,0.003424424840084442,-0.02230635281521838,0
1375,0.05499999999999994,4.99972120164681,0.001122896037706475,-0.024657585681582765,0
1376,0.05503999999999998,5.000049991798719,0.0027668451816259126,-0.02306314975837357,0
1377,0.05508000000000002,4.99972120164681,0.001780475694892425,-0.024098841021314057,0
1378,0.05512000000000006,5.000378781950543,0.0024380553525874815,-0.02349039109595149,0
1379,0.0551600000000001,5.000707572102282,0.003753214669504526,-0.02222416886998283,0
1380,0.055199999999999916,5.000049991798719,0.003424424840084442,-0.022601702553325095,0
1381,0.055239999999999956,5.000378781950543,0.004410794328726292,-0.02166388308781042,0
1382,0.055279999999999996,5.000378781950543,0.00506837398845672,-0.02105465902852261,0
1383,0.055320000000000036,5.000049991798719,0.004082004499051814,-0.02208918910568121,0
1384,0.055360000000000076,5.000049991798719,0.005397163818512657,-0.020821994773171718,0
1385,0.055400000000000116,5.000049991798719,0.005397163818512657,-0.020869763573104105,0
1386,0.055439999999999934,4.999063621342738,0.005725953648695714,-0.020588545771520347,0
1387,0.055479999999999974,5.000049991798719,0.006383533309443135,-0.019978340785633382,0
1388,0.055520000000000014,5.000049991798719,0.005725953648695714,-0.020683097187010648,0
1389,0.055560000000000054,5.000707572102282,0.006712323140007484,-0.019743705923526124,0
1390,0.055600000000000094,4.99972120164681,0.006383533309443135,-0.02011927489246848,0
1391,0.05563999999999991,5.000049991798719,0.005725953648695714,-0.02082343402742897,0
1392,0.05567999999999995,5.000378781950543,0.006712323140007484,-0.019883443773386175,0
