,seconds,Trig,EMG_amplitude,EMG_amplitude_filter,peaks
0,0.0,5.000049991798719,-0.05279863410837703,0.028190581595640224,0
1,4.0000000000040004e-05,5.000049991798719,-0.054113793336938706,0.026897178605115014,0
2,8.000000000008001e-05,5.000378781950543,-0.054771372950441696,0.02626106769216075,0
3,0.00011999999999989797,5.000378781950543,-0.05838806081543309,0.022665560709707905,0
4,0.00015999999999993797,4.99972120164681,-0.06134716905692379,0.019727345254342894,0
5,0.00019999999999997797,5.000049991798719,-0.06430627728788789,0.01678884143681269,0
6,0.00024000000000001798,5.000378781950543,-0.06660780590468694,0.014507628586604607,0
7,0.000280000000000058,5.000049991798719,-0.06825175491278114,0.012883706426238976,0
8,0.000320000000000098,5.000049991798719,-0.07219723251891826,0.008957966479084117,0
9,0.00035999999999991594,5.000378781950543,-0.07285481211811588,0.0083198350823779,0
10,0.00039999999999995595,5.000049991798719,-0.07482755091257769,0.0063662547683153575,0
11,0.00043999999999999595,5.000049991798719,-0.07844423869021762,0.002768435485528263,0
12,0.00048000000000003595,5.000707572102282,-0.08074576726775658,0.0004854851559923934,0
13,0.000520000000000076,5.000378781950543,-0.08370487542946127,-0.0024553352637074685,0
14,0.0005599999999998939,5.000378781950543,-0.08600640399234578,-0.004738866847575338,0
15,0.0005999999999999339,5.000378781950543,-0.08830793254881113,-0.007022689442839805,0
16,0.0006399999999999739,5.000707572102282,-0.09060946109885244,-0.00930680330215769,0
17,0.0006800000000000139,4.99972120164681,-0.09093825089119083,-0.009618469924741954,0
18,0.0007200000000000539,5.000049991798719,-0.09291098964246501,-0.011574377275549844,0
19,0.0007600000000000939,5.000378781950543,-0.09587009776051285,-0.014516946008560655,0
20,0.0007999999999999119,5.000707572102282,-0.09587009776051285,-0.014500698882913693,0
21,0.0008399999999999519,5.000378781950543,-0.09619888755075014,-0.014813534048670654,0
22,0.0008799999999999919,5.000378781950543,-0.09850041607873007,-0.01709940069292562,0
23,0.0009200000000000319,5.000049991798719,-0.10178831396466272,-0.020371929673286104,0
24,0.0009600000000000719,5.000049991798719,-0.10474742205074437,-0.02331596206715092,0
25,0.001000000000000112,5.000378781950543,-0.10507621183742798,-0.0236299696079771,0
26,0.0010399999999999299,5.000049991798719,-0.10507621183742798,-0.0236154810392811,0
27,0.0010799999999999699,5.000378781950543,-0.10836410969701198,-0.026889184235926955,0
28,0.0011200000000000099,5.000707572102282,-0.1116520075434007,-0.030163181551522783,0
29,0.0011600000000000499,4.99972120164681,-0.11263837689474214,-0.031135944728391485,0
30,0.0012000000000000899,5.000049991798719,-0.11526869515917111,-0.033752951396626985,0
31,0.0012399999999999078,4.99972120164681,-0.11592627472395621,-0.03439751416323775,0
32,0.0012799999999999478,5.000049991798719,-0.11888538275893985,-0.037343900415583345,0
33,0.0013199999999999878,5.000378781950543,-0.12020054188215752,-0.0386466329869902,0
34,0.0013600000000000279,5.000378781950543,-0.12184449078319924,-0.04027845078010968,0
35,0.0014000000000000679,5.001036362253937,-0.12315964990164728,-0.04158177444535259,0
36,0.0014400000000001079,4.99972120164681,-0.1251323885753416,-0.043542973529151305,0
37,0.0014799999999999258,5.000378781950543,-0.12710512724426004,-0.04550446867783692,0
38,0.0015199999999999658,5.000378781950543,-0.12809149657692737,-0.04647989076404474,0
39,0.0015600000000000058,5.000378781950543,-0.12842028635421754,-0.04679802977051352,0
40,0.0016000000000000458,5.000049991798719,-0.13006423523867633,-0.048431624559404626,0
41,0.0016400000000000858,5.000378781950543,-0.13203697389564184,-0.05039430599341936,0
42,0.0016799999999999038,5.000378781950543,-0.1330233432223299,-0.051370915164880945,0
43,0.0017199999999999438,5.000049991798719,-0.13400971254782096,-0.05234782159571835,0
44,0.0017599999999999838,5.000049991798719,-0.13433850232271854,-0.052667445927121415,0
45,0.0018000000000000238,5.000049991798719,-0.13598245119521052,-0.054302526995599204,0
46,0.0018400000000000638,5.000049991798719,-0.1376264000643745,-0.05593790588628218,0
47,0.0018800000000001038,5.000378781950543,-0.13828397961110772,-0.05658721346384908,0
48,0.0019199999999999218,5.000378781950543,-0.1405855080204771,-0.05888076809487354,0
49,0.0019599999999999618,5.000378781950543,-0.14321582619461398,-0.061503410860715896,0
50,0.0020000000000000018,5.000049991798719,-0.14453098527848057,-0.06281119308328671,0
51,0.0020400000000000418,4.99972120164681,-0.145188564819613,-0.0634616944847869,0
52,0.002080000000000082,5.000378781950543,-0.14650372390027555,-0.06477007431985893,0
53,0.0021199999999998997,5.000378781950543,-0.148476462517262,-0.06673633275538526,0
54,0.0021599999999999397,5.000378781950543,-0.15077799089766464,-0.06903168018625444,0
55,0.0021999999999999797,4.99972120164681,-0.15077799089766464,-0.06902579863414844,0
56,0.0022400000000000198,4.99972120164681,-0.15143557043371902,-0.0696777961787269,0
57,0.0022800000000000598,5.000378781950543,-0.15340830903867092,-0.07164525251373434,0
58,0.0023200000000000998,4.99972120164681,-0.1557098374050238,-0.0739417984902714,0
59,0.0023599999999999177,5.000049991798719,-0.15603862717110994,-0.0742659059029603,0
60,0.0023999999999999577,5.000049991798719,-0.15735378623411445,-0.07557668280296624,0
61,0.0024399999999999977,5.000707572102282,-0.15801136576481256,-0.07623018051273155,0
62,0.0024800000000000377,4.99972120164681,-0.1599841043536892,-0.07819913777209225,0
63,0.0025200000000000777,4.99972120164681,-0.1606416838822417,-0.07885323660957824,0
64,0.0025599999999998957,5.000378781950543,-0.16097047364631673,-0.07917884646574722,0
65,0.0025999999999999357,5.000378781950543,-0.1619568429377366,-0.08016233677480873,0
66,0.0026399999999999757,4.99972120164681,-0.16327200199108388,-0.08147491791140567,0
67,0.0026800000000000157,5.000049991798719,-0.16425837127968446,-0.0824590104865951,0
68,0.0027200000000000557,5.000049991798719,-0.16294321222794844,-0.08114187606018639,0
69,0.0027600000000000957,5.000378781950543,-0.16590232009133205,-0.0840993100207007,0
70,0.0027999999999999137,5.000378781950543,-0.16688868937670803,-0.08508430700573871,0
71,0.0028399999999999537,4.99972120164681,-0.16491595080474653,-0.0831104978643589,0
72,0.0028799999999999937,5.000049991798719,-0.16721747913823115,-0.08541125748539118,0
73,0.0029200000000000337,5.000049991798719,-0.16721747913823115,-0.08541079075360658,0
74,0.0029600000000000737,4.99972120164681,-0.16754626889961982,-0.0857394158852331,0
75,0.0029999999999998916,5.000378781950543,-0.1695190074651277,-0.08771229204200626,0
76,0.0030399999999999316,5.001693942556992,-0.17017658698588745,-0.08837031149171178,0
77,0.0030799999999999716,5.000378781950543,-0.17247811530430668,-0.09067258219105595,0
78,0.0031200000000000117,4.998406041038327,-0.17477964361612697,-0.09297515544772199,0
79,0.0031600000000000517,5.000707572102282,-0.1734644845816094,-0.09166134403155299,0
80,0.0032000000000000917,5.000707572102282,-0.17642359240624145,-0.09462210225525652,0
81,0.0032399999999999096,5.000049991798719,-0.1754372231325772,-0.0936376862662423,0
82,0.0032799999999999496,5.001365152405508,-0.17247811530430668,-0.09068083471068888,0
83,0.0033199999999999896,4.99972120164681,-0.1767523821638599,-0.09495766093114555,0
84,0.0033600000000000296,4.999063621342738,-0.1754372231325772,-0.09364536444670035,0
85,0.0034000000000000696,5.000707572102282,-0.17477964361612697,-0.09299095075839589,0
86,0.0034400000000001096,5.000707572102282,-0.178067541192985,-0.09628231753770645,0
87,0.0034799999999999276,5.000378781950543,-0.17708117192134348,-0.09529972093344488,0
88,0.0035199999999999676,4.999392411494816,-0.17773875143590606,-0.09596137666855528,0
89,0.0035600000000000076,5.000049991798719,-0.17872512070673813,-0.09695212579896123,0
90,0.0036000000000000476,5.000049991798719,-0.178067541192985,-0.09629922986728195,0
91,0.0036400000000000876,5.000049991798719,-0.18004027973262504,-0.09827695579258348,0
92,0.0036799999999999056,4.99972120164681,-0.18036906948875936,-0.09861103681666619,0
93,0.0037199999999999456,4.999392411494816,-0.17839633094992902,-0.09664389350437996,0
94,0.0037599999999999856,5.000378781950543,-0.18102664900062287,-0.0992801108141298,0
95,0.0038000000000000256,5.000049991798719,-0.18135543875635207,-0.09961510393294802,0
96,0.0038400000000000656,4.99972120164681,-0.18234180802272937,-0.10060798073557148,0
97,0.0038800000000001056,5.000378781950543,-0.18398575679732287,-0.10225874128629298,0
98,0.0039199999999999235,5.000049991798719,-0.18530091581456487,-0.10358101638386776,0
99,0.0039599999999999635,5.000378781950543,-0.18398575679732287,-0.1022732778130829,0
100,0.0040000000000000036,5.000378781950543,-0.18464333630621427,-0.10293858219406993,0
101,0.0040400000000000436,5.000049991798719,-0.18431454655183616,-0.10261782179453305,0
102,0.0040800000000000836,5.000049991798719,-0.18595849532237463,-0.10427010445735663,0
103,0.0041199999999999015,5.000378781950543,-0.18661607482964343,-0.10493632244664203,0
104,0.0041599999999999415,5.000378781950543,-0.1869448645830749,-0.10527405532169706,0
105,0.0041999999999999815,5.000378781950543,-0.18793123384255755,-0.10626967238987145,0
106,0.0042400000000000215,5.000049991798719,-0.18858881334820277,-0.10693680443632175,0
107,0.0042800000000000615,5.000049991798719,-0.18891760310082228,-0.10727545150448682,0
108,0.0043200000000001015,4.999063621342738,-0.19056155186188928,-0.10892956239604712,0
109,0.0043599999999999195,4.99972120164681,-0.18924639285330647,-0.10762487037069127,0
110,0.0043999999999999595,5.000049991798719,-0.19023276210994672,-0.10862201149865482,0
111,0.0044399999999999995,5.000049991798719,-0.1912191313653681,-0.10961945754643375,0
112,0.0044800000000000395,5.000049991798719,-0.19286308012169417,-0.11127478804666296,0
113,0.0045200000000000795,5.000378781950543,-0.1945070288746319,-0.11293042352313258,0
114,0.0045599999999998975,4.99972120164681,-0.19516460837485777,-0.11359999475217243,0
115,0.0045999999999999375,4.99972120164681,-0.1958221878745412,-0.11426987100917378,0
116,0.0046399999999999775,5.000049991798719,-0.19845250586784702,-0.11691279080909012,0
117,0.0046800000000000175,5.000049991798719,-0.19911008536481606,-0.1175832771803163,0
118,0.0047200000000000575,4.99972120164681,-0.1997676648612418,-0.1182540686345637,0
119,0.0047600000000000975,5.000049991798719,-0.20075403410486176,-0.11925395493305023,0
120,0.0047999999999999154,5.000378781950543,-0.20141161359992904,-0.11992535659107073,0
121,0.0048399999999999554,4.99972120164681,-0.2027267725884327,-0.12125464285921568,0
122,0.0048799999999999955,5.000707572102282,-0.20338435208186884,-0.12192665475514115,0
123,0.0049200000000000355,5.000049991798719,-0.20502830081307927,-0.12358534101540594,0
124,0.0049600000000000755,4.99972120164681,-0.20700103928604185,-0.12557312214526056,0
125,0.004999999999999893,5.000378781950543,-0.20700103928604185,-0.12558846992881717,0
126,0.005039999999999933,5.000378781950543,-0.2046995110671092,-0.12330259461648581,0
127,0.005079999999999973,4.99972120164681,-0.20371314182838302,-0.12233218340133807,0
128,0.005120000000000013,4.99972120164681,-0.20502830081307927,-0.12366360551807379,0
129,0.005160000000000053,4.99972120164681,-0.2053570905589132,-0.12400896349344237,0
130,0.0052000000000000934,5.000707572102282,-0.20437072132100315,-0.12303946756914541,0
131,0.005239999999999911,5.000378781950543,-0.2053570905589132,-0.12404301518887852,0
132,0.005279999999999951,5.000049991798719,-0.2063434597955987,-0.12504686785727556,0
133,0.005319999999999991,5.000378781950543,-0.20601467005017304,-0.12473586657267433,0
134,0.005360000000000031,5.000378781950543,-0.20404193157476108,-0.12278122156396908,0
135,0.005400000000000071,5.000049991798719,-0.20601467005017304,-0.12477235848628354,0
136,0.005440000000000111,4.999392411494816,-0.20568588030461116,-0.12446227213967634,0
137,0.005479999999999929,5.000378781950543,-0.2053570905589132,-0.12415249071438386,0
138,0.005519999999999969,5.000049991798719,-0.20568588030461116,-0.12450059366887781,0
139,0.005560000000000009,5.000707572102282,-0.2053570905589132,-0.1241914219848465,0
140,0.005600000000000049,5.000378781950543,-0.20667224954088836,-0.12552650384337832,0
141,0.005640000000000089,4.99972120164681,-0.20667224954088836,-0.125546731494383,0
142,0.005679999999999907,5.000049991798719,-0.2053570905589132,-0.12425210489495617,0
143,0.005719999999999947,5.000378781950543,-0.20831619826529435,-0.12723204967006133,0
144,0.005759999999999987,5.000378781950543,-0.2063434597955987,-0.1252804529074336,0
145,0.005800000000000027,5.000049991798719,-0.20765861877594044,-0.1266170581828903,0
146,0.005840000000000067,4.99972120164681,-0.20831619826529435,-0.1272963885026442,0
147,0.005880000000000107,5.000049991798719,-0.20831619826529435,-0.12731844381310103,0
148,0.005919999999999925,5.000378781950543,-0.20996014698629556,-0.1289847522669213,0
149,0.005959999999999965,5.000049991798719,-0.20963135724236776,-0.12867862661801266,0
150,0.006000000000000005,4.99972120164681,-0.20963135724236776,-0.12870159501260184,0
151,0.006040000000000045,5.000049991798719,-0.21127530596064387,-0.13036881635993822,0
152,0.006080000000000085,5.000049991798719,-0.21028893673008708,-0.12940602392534423,0
153,0.006119999999999903,5.000049991798719,-0.20996014698629556,-0.12910111507437944,0
154,0.006159999999999943,5.000378781950543,-0.21094651621726124,-0.13011166922252637,0
155,0.006199999999999983,4.99972120164681,-0.20930256749830378,-0.12849220937012393,0
156,0.006240000000000023,5.000378781950543,-0.20963135724236776,-0.12884579185266412,0
157,0.006280000000000063,4.99972120164681,-0.20996014698629556,-0.12919967812706448,0
158,0.006320000000000103,4.99972120164681,-0.21094651621726124,-0.13021144759810188,0
159,0.006359999999999921,5.000049991798719,-0.21127530596064387,-0.13056594120628523,0
160,0.006399999999999961,4.99972120164681,-0.21259046493281109,-0.13190710758063853,0
161,0.006440000000000001,4.999392411494816,-0.21193288544700017,-0.1312758389445813,0
162,0.006480000000000041,5.000049991798719,-0.21291925467551198,-0.13228882237812198,0
163,0.006520000000000081,4.99972120164681,-0.21357683416050455,-0.1329733193286514,0
164,0.006559999999999899,5.000049991798719,-0.21390562390279633,-0.1333293296997456,0
165,0.006599999999999939,5.000049991798719,-0.21489199312885277,-0.1343432226181529,0
166,0.006639999999999979,5.000049991798719,-0.21489199312885277,-0.13437104927186017,0
167,0.006680000000000019,5.000049991798719,-0.21620715209501734,-0.13571433774842107,0
168,0.006720000000000059,5.000049991798719,-0.21620715209501734,-0.1357427700083636,0
169,0.006760000000000099,5.000707572102282,-0.21653594183621722,-0.13610029464943407,0
170,0.006799999999999917,5.000378781950543,-0.21653594183621722,-0.13612933207713884,0
171,0.006839999999999957,5.000378781950543,-0.21587836235368096,-0.13550109243557187,0
172,0.006879999999999997,4.99972120164681,-0.21587836235368096,-0.13553073457276046,0
173,0.006920000000000037,5.000707572102282,-0.21686473157728053,-0.13654704811024684,0
174,0.006960000000000077,5.000049991798719,-0.21686473157728053,-0.13657729447883493,0
175,0.006999999999999895,5.000049991798719,-0.21686473157728053,-0.1366078427776513,0
176,0.007039999999999935,4.999392411494816,-0.21587836235368096,-0.13565232365614732,0
177,0.007079999999999975,4.99972120164681,-0.21522078287059865,-0.1350258959490147,0
178,0.007120000000000015,4.99972120164681,-0.21620715209501734,-0.13604371849133615,0
179,0.007160000000000055,5.000049991798719,-0.21554957261220803,-0.1354178937340053,0
180,0.007200000000000095,5.000049991798719,-0.21489199312885277,-0.1347923702468511,0
181,0.007239999999999913,5.000378781950543,-0.21489199312885277,-0.13482472737444537,0
182,0.007279999999999953,5.000707572102282,-0.21489199312885277,-0.13485738549162773,0
183,0.007319999999999993,5.000378781950543,-0.21456320338697038,-0.13456155471223505,0
184,0.007360000000000033,5.000378781950543,-0.21357683416050455,-0.13360844514681042,0
185,0.007400000000000073,5.000707572102282,-0.21390562390279633,-0.13397079509946416,0
186,0.007440000000000113,5.000378781950543,-0.21390562390279633,-0.13400465570744172,0
187,0.007479999999999931,4.99972120164681,-0.2132480444180765,-0.13338123707413518,0
188,0.007519999999999971,5.000049991798719,-0.21291925467551198,-0.13308690826976577,0
189,0.007560000000000011,5.000378781950543,-0.21259046493281109,-0.13279287939291398,0
190,0.007600000000000051,5.000378781950543,-0.21160409570389016,-0.13184157079589437,0
191,0.007640000000000091,5.000707572102282,-0.20996014698629556,-0.13023298231217778,0
192,0.007679999999999909,4.99972120164681,-0.21061772647374233,-0.13092622146893093,0
193,0.007719999999999949,5.000378781950543,-0.21028893673008708,-0.13063339066098914,0
194,0.007759999999999989,4.99972120164681,-0.21061772647374233,-0.13099843843527148,0
195,0.007800000000000029,5.000049991798719,-0.21028893673008708,-0.1307062056431917,0
196,0.00784000000000007,4.99972120164681,-0.20930256749830378,-0.12975669210749566,0
197,0.00788000000000011,4.99972120164681,-0.20963135724236776,-0.13012263611325167,0
198,0.007919999999999927,5.000049991798719,-0.20700103928604185,-0.12752977080284558,0
199,0.007959999999999967,5.000378781950543,-0.20930256749830378,-0.12986904986140882,0
200,0.008000000000000007,5.000049991798719,-0.20798740852068553,-0.12859193974415858,0
201,0.008040000000000047,5.000378781950543,-0.20963135724236776,-0.13027423515149264,0
202,0.008080000000000087,5.000049991798719,-0.21061772647374233,-0.13129924870255277,0
203,0.008119999999999905,5.000049991798719,-0.208644988009767,-0.1293654519985799,0
204,0.008159999999999945,4.999392411494816,-0.20963135724236776,-0.13039106023531757,0
205,0.008199999999999985,5.000049991798719,-0.21028893673008708,-0.1310881757726608,0
206,0.008240000000000025,5.000049991798719,-0.20963135724236776,-0.13047042917894092,0
207,0.008280000000000065,5.000049991798719,-0.21061772647374233,-0.13149692794511644,0
208,0.008320000000000105,4.99972120164681,-0.20996014698629556,-0.1308797744272363,0
209,0.008359999999999923,5.000378781950543,-0.21127530596064387,-0.13223565559742073,0
210,0.008399999999999963,5.000049991798719,-0.21259046493281109,-0.13359183278073739,0
211,0.008440000000000003,5.000378781950543,-0.21094651621726124,-0.13198919807823567,0
212,0.008480000000000043,5.000378781950543,-0.21160409570389016,-0.1326883871639393,0
213,0.008520000000000083,5.000378781950543,-0.21259046493281109,-0.133716661359633,0
214,0.008559999999999901,5.000378781950543,-0.21127530596064387,-0.13244370250115295,0
215,0.008599999999999941,5.000049991798719,-0.21028893673008708,-0.13149982830795995,0
216,0.008639999999999981,5.000378781950543,-0.21061772647374233,-0.13187140778696504,0
217,0.008680000000000021,5.000707572102282,-0.20996014698629556,-0.13125691250471172,0
218,0.008720000000000061,5.000378781950543,-0.20963135724236776,-0.13097150120522796,0
219,0.008760000000000101,5.000707572102282,-0.208644988009767,-0.13002880442327913,0
220,0.008799999999999919,5.000049991798719,-0.20732982903105923,-0.12875761166593985,0
221,0.008839999999999959,5.000378781950543,-0.20732982903105923,-0.1288018714200863,0
222,0.008879999999999999,5.000378781950543,-0.20732982903105923,-0.12884642446662595,0
223,0.008920000000000039,5.000378781950543,-0.20798740852068553,-0.12954885005235534,0
224,0.008960000000000079,5.000707572102282,-0.20831619826529435,-0.1299227786973572,0
225,0.008999999999999897,5.000378781950543,-0.20700103928604185,-0.1286530511750718,0
226,0.009039999999999937,5.000049991798719,-0.20732982903105923,-0.12902756468347334,0
227,0.009079999999999977,4.99972120164681,-0.20732982903105923,-0.12907358050067813,0
228,0.009120000000000017,5.000049991798719,-0.2063434597955987,-0.12813351888120836,0
229,0.009160000000000057,5.000049991798719,-0.20798740852068553,-0.1298240667636002,0
230,0.009200000000000097,5.001036362253937,-0.20831619826529435,-0.1301997469469213,0
231,0.009239999999999915,5.000378781950543,-0.20930256749830378,-0.13123329763770922,0
232,0.009279999999999955,4.99972120164681,-0.20897377775410353,-0.1309519801055799,0
233,0.009319999999999995,5.000378781950543,-0.20897377775410353,-0.1309997428047382,0
234,0.009360000000000035,5.000378781950543,-0.20897377775410353,-0.13104779572134884,0
235,0.009400000000000075,5.000378781950543,-0.20963135724236776,-0.13175371807161276,0
236,0.009439999999999893,5.000378781950543,-0.20897377775410353,-0.13114477111624762,0
237,0.009479999999999933,5.000378781950543,-0.20930256749830378,-0.13152248278733175,0
238,0.009519999999999973,5.000378781950543,-0.20897377775410353,-0.13124290408466258,0
239,0.009560000000000013,5.000049991798719,-0.20897377775410353,-0.13129240395908137,0
240,0.009600000000000053,5.000378781950543,-0.20963135724236776,-0.13199977187047252,0
241,0.009640000000000093,4.99972120164681,-0.20963135724236776,-0.13204984855570934,0
242,0.009679999999999911,5.000049991798719,-0.21028893673008708,-0.13275779270176014,0
243,0.009719999999999951,5.000378781950543,-0.21160409570389016,-0.13412360401555878,0
244,0.009759999999999991,5.000049991798719,-0.21160409570389016,-0.13417454374337462,0
245,0.009800000000000031,5.000049991798719,-0.21028893673008708,-0.1329106115889525,0
246,0.009840000000000071,5.000378781950543,-0.20897377775410353,-0.13164696622525074,0
247,0.009880000000000111,5.000378781950543,-0.20765861877594044,-0.1303836073511987,0
248,0.009919999999999929,5.000378781950543,-0.20798740852068553,-0.13076448338840746,0
249,0.009959999999999969,5.000378781950543,-0.20700103928604185,-0.12983048632870012,0
250,0.010000000000000009,5.000378781950543,-0.20568588030461116,-0.12856798509639705,0
251,0.010040000000000049,5.000049991798719,-0.20732982903105923,-0.1302648768354836,0
252,0.010080000000000089,5.000049991798719,-0.20568588030461116,-0.1286741560721072,0
253,0.010119999999999907,5.000378781950543,-0.20568588030461116,-0.12872766867013985,0
254,0.010159999999999947,5.000378781950543,-0.20437072132100315,-0.1274663066016604,0
255,0.010199999999999987,4.99972120164681,-0.20371314182838302,-0.12686280802100885,0
256,0.010240000000000027,5.000049991798719,-0.20338435208186884,-0.1265883828606592,0
257,0.010280000000000067,4.99972120164681,-0.20174040334725885,-0.12499908206137919,0
258,0.010320000000000107,4.99972120164681,-0.20108282385246334,-0.12439643352366458,0
259,0.010359999999999925,5.000049991798719,-0.20141161359992904,-0.1247804369201655,0
260,0.010399999999999965,5.000049991798719,-0.20009645460925096,-0.12352077393830063,0
261,0.010440000000000005,5.000049991798719,-0.19911008536481606,-0.12259018272790309,0
262,0.010480000000000045,5.000049991798719,-0.19943887511309688,-0.12297503219851631,0
263,0.010520000000000085,5.000378781950543,-0.19746613662137524,-0.12105863477812037,0
264,0.010559999999999903,5.000378781950543,-0.19713734687227985,-0.12078646710767177,0
265,0.010599999999999943,5.000378781950543,-0.1958221878745412,-0.11952821085186086,0
266,0.010639999999999983,5.000378781950543,-0.19647976737368184,-0.12024297340980472,0
267,0.010680000000000023,5.000378781950543,-0.1958221878745412,-0.11964285693757461,0
268,0.010720000000000063,5.000049991798719,-0.19516460837485777,-0.11904302008178054,0
269,0.010760000000000103,5.000378781950543,-0.19483581862481264,-0.11877225223911686,0
270,0.01079999999999992,5.000049991798719,-0.19516460837485777,-0.1191593428041932,0
271,0.01083999999999996,5.000378781950543,-0.19516460837485777,-0.11921792216867906,0
272,0.01088,5.000378781950543,-0.1954933981247673,-0.119605569471984,0
273,0.01092000000000004,4.999392411494816,-0.19483581862481264,-0.11900712535144162,0
274,0.01096000000000008,4.999392411494816,-0.1922055006195703,-0.1164362201863913,0
275,0.010999999999999899,5.001036362253937,-0.19483581862481264,-0.1191262281250269,0
276,0.011039999999999939,5.000049991798719,-0.1912191313653681,-0.11556950752225936,0
277,0.011079999999999979,5.000707572102282,-0.19154792111690433,-0.11595854028150274,0
278,0.011120000000000019,5.000049991798719,-0.1899039723578687,-0.11437511050661799,0
279,0.011160000000000059,5.000378781950543,-0.1908903416136964,-0.11542227434612404,0
280,0.011200000000000099,5.000378781950543,-0.1895751826056553,-0.11416818514204574,0
281,0.011239999999999917,4.999063621342738,-0.1908903416136964,-0.11554468879276696,0
282,0.011279999999999957,5.000049991798719,-0.1895751826056553,-0.11429114888223546,0
283,0.011319999999999997,4.999392411494816,-0.18464333630621427,-0.10942119574892753,0
284,0.011360000000000037,4.99972120164681,-0.18891760310082228,-0.1137576293897711,0
285,0.011400000000000077,4.999063621342738,-0.18332817728789086,-0.10823064371234442,0
286,0.011439999999999895,5.000049991798719,-0.18661607482964343,-0.11158125428572853,0
287,0.011479999999999935,5.000049991798719,-0.18398575679732287,-0.10901392178571805,0
288,0.011519999999999975,4.997748460733576,-0.18398575679732287,-0.10907717942095521,0
289,0.011560000000000015,5.001036362253937,-0.18464333630621427,-0.10979828826795948,0
290,0.011600000000000055,4.998406041038327,-0.1895751826056553,-0.11479393520604092,0
291,0.011640000000000095,5.002022732708393,-0.17971148997635578,-0.10499431411126725,0
292,0.011679999999999913,4.998406041038327,-0.18299938753297212,-0.10834655369136242,0
293,0.011719999999999953,4.999392411494816,-0.18069785924475862,-0.10610963750636103,0
294,0.011759999999999993,5.000049991798719,-0.18201301826740535,-0.10748967830044949,0
295,0.011800000000000033,5.000378781950543,-0.17905391046341235,-0.10459572152234368,0
296,0.011840000000000073,4.9970908804284875,-0.178067541192985,-0.10367477211618747,0
297,0.011880000000000113,5.000378781950543,-0.17773875143590606,-0.10341167064342771,0
298,0.01191999999999993,5.000707572102282,-0.1760948026484882,-0.10183367813977016,0
299,0.01195999999999997,5.000707572102282,-0.1760948026484882,-0.10189990200009713,0
300,0.01200000000000001,5.000378781950543,-0.1744508538576997,-0.1003224442210638,0
301,0.01204000000000005,5.000049991798719,-0.17477964361612697,-0.10071799171527537,0
302,0.01208000000000009,5.000049991798719,-0.1744508538576997,-0.10045622598700515,0
303,0.012119999999999909,4.99972120164681,-0.1718205357854315,-0.09789319780735656,0
304,0.012159999999999949,4.99972120164681,-0.17050537674606547,-0.09664559408891228,0
305,0.012199999999999989,4.99972120164681,-0.1655735303292713,-0.09178156798493475,0
306,0.012240000000000029,5.000049991798719,-0.16392958151695192,-0.09020570403867624,0
307,0.012280000000000069,4.99972120164681,-0.15932652482460002,-0.08567099632473893,0
308,0.012320000000000109,4.999392411494816,-0.15603862717110994,-0.08245171131889048,0
309,0.012359999999999927,5.000049991798719,-0.14913404205518838,-0.07561600207447804,0
310,0.012399999999999967,5.000049991798719,-0.14255824665188005,-0.06910934531895783,0
311,0.012440000000000007,5.000378781950543,-0.13565366142097834,-0.06227416106230947,0
312,0.012480000000000047,5.000049991798719,-0.1297354454620503,-0.05642560795206453,0
313,0.012520000000000087,5.000378781950543,-0.12315964990164728,-0.04991973666052124,0
314,0.012559999999999905,5.000378781950543,-0.1182278031965366,-0.04505807518797983,0
315,0.012599999999999945,5.000378781950543,-0.11263837689474214,-0.03953909462378691,0
316,0.012639999999999985,5.000378781950543,-0.10869289948224485,-0.03566432299303959,0
317,0.012680000000000025,4.999392411494816,-0.10474742205074437,-0.03178981092435118,0
318,0.012720000000000065,4.99972120164681,-0.10113073438852911,-0.028244347740724984,0
319,0.012760000000000105,5.000049991798719,-0.09817162628941313,-0.025356722768495238,0
320,0.012799999999999923,5.000378781950543,-0.09587009776051285,-0.023126935545107308,0
321,0.012839999999999963,5.000049991798719,-0.09685646713083039,-0.024185303927705404,0
322,0.012880000000000003,4.99972120164681,-0.09488372838901253,-0.022284821430895718,0
323,0.012920000000000043,4.99972120164681,-0.09619888755075014,-0.023672493594149774,0
324,0.012960000000000083,4.99972120164681,-0.09587009776051285,-0.023416473083543055,0
325,0.0129999999999999,5.000049991798719,-0.09455493859824966,-0.022174338998459497,0
326,0.01303999999999994,5.000049991798719,-0.09422614880735543,-0.021918829599561873,0
327,0.01307999999999998,5.000378781950543,-0.09258219985091413,-0.020348415865039077,0
328,0.01312000000000002,5.000378781950543,-0.09126704068339796,-0.01910704626230955,0
329,0.01316000000000006,5.000049991798719,-0.08863672234206758,-0.016550771339425674,0
330,0.0132000000000001,5.000707572102282,-0.08469124481434036,-0.012679590592446416,0
331,0.013239999999999919,5.000378781950543,-0.0791018182844538,-0.007164713712104892,0
332,0.013279999999999959,5.000049991798719,-0.0715396529191989,0.0003226496304537807,0
333,0.013319999999999999,5.000378781950543,-0.06496385689333826,0.006823391758250169,0
334,0.013360000000000039,5.000378781950543,-0.059703220035172325,0.012008723342899652,0
335,0.013400000000000079,5.000707572102282,-0.05214105449331856,0.019495332737829246,0
336,0.013439999999999896,4.99972120164681,-0.04326372963934923,0.028296851075635204,0
337,0.013479999999999936,5.000049991798719,-0.03471519450577058,0.03676932983009937,0
338,0.013519999999999976,4.99972120164681,-0.026824238920549456,0.044583979681658004,0
339,0.013560000000000016,5.000378781950543,-0.01926207308192608,0.052069590942584565,0
340,0.013600000000000056,5.001036362253937,-0.01301506646843685,0.05823979464696272,0
341,0.013640000000000096,5.000707572102282,-0.007754429284417372,0.06342338110517864,0
342,0.013679999999999914,5.000049991798719,-0.003808951374948702,0.0672915609889704,0
343,0.013719999999999954,5.000049991798719,-0.0015074225859438989,0.06951554497133719,0
344,0.013759999999999994,5.000049991798719,-0.001178632758433426,0.06976654373224947,0
345,0.013800000000000034,5.000049991798719,-0.004137741201439435,0.0667293984857705,0
346,0.013840000000000074,5.000049991798719,-0.006768059808773,0.06402079786325399,0
347,0.013879999999999892,4.99972120164681,-0.010055958056451306,0.06065437291592196,0
348,0.013919999999999932,5.000378781950543,-0.015316595226152155,0.05531496489140536,0
349,0.013959999999999972,5.000378781950543,-0.02090602218305261,0.04964652345589993,0
350,0.014000000000000012,5.000049991798719,-0.025509079649145103,0.044964208420845225,0
351,0.014040000000000052,4.99972120164681,-0.03208487598559902,0.03830891196055827,0
352,0.014080000000000092,5.000049991798719,-0.03800309264438971,0.03231095316059987,0
353,0.01411999999999991,5.001036362253937,-0.042277360205311795,0.02795670198075645,0
354,0.01415999999999995,4.99972120164681,-0.045565258314247556,0.02458857931676703,0
355,0.01419999999999999,4.99972120164681,-0.04819557679208804,0.021877795891397156,0
356,0.01424000000000003,5.000378781950543,-0.05279863410837703,0.01719403378078982,0
357,0.01428000000000007,5.000049991798719,-0.05279863410837703,0.017113089687394584,0
358,0.01432000000000011,5.000049991798719,-0.057401691399265334,0.01242884955376658,0
359,0.014359999999999928,5.000049991798719,-0.058716850620562686,0.011032269292132774,0
360,0.014399999999999968,5.000378781950543,-0.06233353846841526,0.007333922760105027,0
361,0.014440000000000008,4.99972120164681,-0.06529264669586828,0.004292918760401637,0
362,0.014480000000000048,5.000378781950543,-0.06825175491278114,0.0012516782409269511,0
363,0.014520000000000088,4.999063621342738,-0.0715396529191989,-0.002118588038605096,0
364,0.014559999999999906,5.000049991798719,-0.07416997131494572,-0.004831510116269394,0
365,0.014599999999999946,4.99972120164681,-0.07548513050968754,-0.006229507837997569,0
366,0.014639999999999986,5.000378781950543,-0.07680028970234042,-0.007627739836991346,0
367,0.014680000000000026,4.99972120164681,-0.07811544889290346,-0.00902620554556069,0
368,0.014720000000000066,5.000378781950543,-0.08008818767482774,-0.011082483987498476,0
369,0.014760000000000106,5.000049991798719,-0.0820609264520449,-0.013138994995113923,0
370,0.014799999999999924,5.000378781950543,-0.08370487542946127,-0.014866948199732236,0
371,0.014839999999999964,5.000049991798719,-0.08666398358056253,-0.01791029199930466,0
372,0.014880000000000004,5.000049991798719,-0.09093825089119083,-0.02226902580219131,0
373,0.014920000000000044,4.99972120164681,-0.09554130797014417,-0.026956779637766035,0
374,0.014960000000000084,5.000049991798719,-0.1027746833278755,-0.03427508143512084,0
375,0.014999999999999902,4.99972120164681,-0.11099442797517921,-0.04257998162175787,0
376,0.015039999999999942,5.000049991798719,-0.11888538275893985,-0.05055632045934365,0
377,0.015079999999999982,5.000378781950543,-0.12940665568529136,-0.061163205366873544,0
378,0.015120000000000022,5.000049991798719,-0.13959913870297558,-0.07144152770403586,0
379,0.015160000000000062,5.000049991798719,-0.14979162159258003,-0.08172007666045505,0
380,0.015200000000000102,4.99972120164681,-0.16097047364631673,-0.09298522093547625,0
381,0.01523999999999992,4.99972120164681,-0.16853263818297903,-0.10063390325312759,0
382,0.01527999999999996,4.999392411494816,-0.1767523821638599,-0.10894038997804426,0
383,0.01532,4.99972120164681,-0.18267059777791833,-0.11494557270064057,0
384,0.01536000000000004,5.000378781950543,-0.18562970556853736,-0.11799187136387386,0
385,0.01540000000000008,5.000378781950543,-0.18661607482964343,-0.11906565465936948,0
386,0.015439999999999898,4.99972120164681,-0.18628728507607667,-0.11882450149779684,0
387,0.015479999999999938,5.000049991798719,-0.18332817728789086,-0.11595325225317478,0
388,0.015519999999999978,5.000049991798719,-0.17971148997635578,-0.11242464482887997,0
389,0.015560000000000018,5.000049991798719,-0.1744508538576997,-0.10725230933139515,0
390,0.015600000000000058,5.000049991798719,-0.16984779722557486,-0.10273777344278051,0
391,0.0156400000000001,4.99972120164681,-0.16425837127968446,-0.09723708774930671,0
392,0.015679999999999916,5.000049991798719,-0.15768257599953056,-0.0907502516152087,0
393,0.015719999999999956,5.000378781950543,-0.15209314996923823,-0.08525000300751584,0
394,0.015759999999999996,5.000049991798719,-0.14584614436021137,-0.07909239247871375,0
395,0.015800000000000036,5.000049991798719,-0.13894155915730816,-0.07227741939292556,0
396,0.015840000000000076,5.000049991798719,-0.1333521329976266,-0.06677782176470329,0
397,0.015879999999999894,4.999063621342738,-0.12809149657692737,-0.061607229665456745,0
398,0.015919999999999934,5.000378781950543,-0.12250207034268835,-0.05610806291651427,0
399,0.015959999999999974,5.000378781950543,-0.11724143385193893,-0.050937900446963086,0
400,0.016000000000000014,4.99972120164681,-0.11198079732731327,-0.04576795184970865,0
401,0.016040000000000054,4.99972120164681,-0.10474742205074437,-0.03862547777517503,0
402,0.016080000000000094,5.000707572102282,-0.10014436502334141,-0.03411353459118831,0
403,0.016119999999999912,5.000049991798719,-0.09455493859824966,-0.02861543401584267,0
404,0.016159999999999952,5.000049991798719,-0.09093825089119083,-0.025090283528046986,0
405,0.016199999999999992,4.99972120164681,-0.08797914275542355,-0.022222923342491485,0
406,0.016240000000000032,4.99972120164681,-0.0840336652245519,-0.018369403852462274,0
407,0.016280000000000072,5.000049991798719,-0.08238971624778989,-0.016817622365111945,0
408,0.016320000000000112,4.99972120164681,-0.08173213665616903,-0.016252419067673232,0
409,0.01635999999999993,4.99972120164681,-0.08008818767482774,-0.01470105453975483,0
410,0.01639999999999997,4.99972120164681,-0.08173213665616903,-0.016437795486505424,0
411,0.01644000000000001,4.99972120164681,-0.08337608563423975,-0.01817474329299927,0
412,0.01648000000000005,5.000378781950543,-0.08271850604340404,-0.017610368742916147,0
413,0.01652000000000009,5.000049991798719,-0.0840336652245519,-0.019018938524756265,0
414,0.016559999999999908,4.99972120164681,-0.08534882440360501,-0.020427713210352763,0
415,0.016599999999999948,5.000707572102282,-0.08732156316825516,-0.022494271731616486,0
416,0.016639999999999988,4.99972120164681,-0.08666398358056253,-0.02193071549314085,0
417,0.016680000000000028,5.000378781950543,-0.08534882440360501,-0.020709782598857737,0
418,0.016720000000000068,4.99972120164681,-0.0840336652245519,-0.019489051975117466,0
419,0.016760000000000108,5.000049991798719,-0.0791018182844538,-0.014651835200485436,0
420,0.016799999999999926,5.000049991798719,-0.07712907950017713,-0.012773927527682971,0
421,0.016839999999999966,5.000049991798719,-0.07416997131494572,-0.009909850734135486,0
422,0.016880000000000006,4.999063621342738,-0.06759417530993413,-0.0034292857335724153,0
423,0.016920000000000046,5.000049991798719,-0.06134716905692379,0.0027222905713099876,0
424,0.016960000000000086,5.000049991798719,-0.05707290159361651,0.006900929813528467,0
425,0.016999999999999904,5.000707572102282,-0.05378500352999273,0.01009300205544797,0
426,0.017039999999999944,5.000378781950543,-0.0491819462191435,0.014600036617942971,0
427,0.017079999999999984,5.000378781950543,-0.04359251945043667,0.0200932443872245,0
428,0.017120000000000024,4.99972120164681,-0.03964704170886384,0.023942307555486264,0
429,0.017160000000000064,4.99972120164681,-0.037016723204157484,0.026476016591780865,0
430,0.017200000000000104,4.99972120164681,-0.029454557457189598,0.03394137865561442,0
431,0.017239999999999922,5.000049991798719,-0.022549971280973066,0.040748967615938464,0
432,0.017279999999999962,5.000707572102282,-0.014001435936796827,0.049200312895007925,0
433,0.017320000000000002,5.000049991798719,-0.0028225818947114484,0.060281784707888586,0
434,0.017360000000000042,4.99972120164681,0.0076986926324629085,0.0707054855284425,0
435,0.017400000000000082,4.99972120164681,0.023809394504130166,0.08671842290431486,0
436,0.0174399999999999,5.000049991798719,0.037947357621069405,0.10075843142607818,0
437,0.01747999999999994,5.000049991798719,0.05537321945707481,0.11808614925886521,0
438,0.01751999999999998,4.99972120164681,0.07411424106876553,0.13672883815217163,0
439,0.01756000000000002,5.000378781950543,0.08792341514628582,0.15043949149054991,0
440,0.01760000000000006,4.99972120164681,0.10173258944188096,0.1641499577221775,0
441,0.0176400000000001,4.99972120164681,0.11389781459642795,0.17621628818538054,0
442,0.017679999999999918,5.000049991798719,0.12211756141747197,0.18433695438666303,0
443,0.017719999999999958,4.999392411494816,0.12902214880616825,0.19114227592764116,0
444,0.017759999999999998,4.99972120164681,0.1286933589292962,0.19071403567704948,0
445,0.017800000000000038,4.99972120164681,0.12376151079085085,0.18568255334232536,0
446,0.017840000000000078,4.99972120164681,0.11455539433929632,0.17637661957685494,0
447,0.017879999999999896,5.000049991798719,0.10008864010957542,0.16180986562197563,0
448,0.017919999999999936,5.000378781950543,0.07805971935431567,0.13968076343817493,0
449,0.017959999999999976,5.000378781950543,0.05504442960785576,0.11656511126910848,0
450,0.018000000000000016,4.999063621342738,0.022823024993048696,0.08424316394839648,0
451,0.018040000000000056,4.999392411494816,-0.01301506646843685,0.04830435020991719,0
452,0.018080000000000096,4.99972120164681,-0.05181226468559495,0.009406250858321391,0
453,0.018119999999999914,5.000378781950543,-0.09192462026741856,-0.03080718400031099,0
454,0.018159999999999954,4.99972120164681,-0.1349960818721146,-0.07397990230769336,0
455,0.018199999999999994,4.99972120164681,-0.1744508538576997,-0.1135361077039356,0
456,0.018240000000000034,5.000378781950543,-0.21259046493281109,-0.15177732817836212,0
457,0.018280000000000074,4.99972120164681,-0.2454694385255246,-0.18475808643833747,0
458,0.018320000000000114,5.000049991798719,-0.27308777527929984,-0.2124783824052186,0
459,0.018359999999999932,5.000049991798719,-0.29281515807511177,-0.23230789823649461,0
460,0.018399999999999972,5.000049991798719,-0.30761069484191084,-0.2472057411362544,0
461,0.018440000000000012,4.999392411494816,-0.31681680646450566,-0.2565143312630767,0
462,0.018480000000000052,5.000378781950543,-0.32010470344584,-0.25990487839231513,0
463,0.018520000000000092,5.000707572102282,-0.31878954465499676,-0.2586925406641093,0
464,0.01855999999999991,5.000378781950543,-0.31451527856919353,-0.25452126582538825,0
465,0.01859999999999995,5.000378781950543,-0.3069531154360811,-0.24706226339217657,0
466,0.01863999999999999,4.999392411494816,-0.2977470036955575,-0.23795948107141662,0
467,0.01868000000000003,5.000378781950543,-0.286896943289067,-0.22721291807027547,0
468,0.01872000000000007,4.99972120164681,-0.27473172386476336,-0.21515136330131557,0
469,0.01876000000000011,4.99972120164681,-0.2619089248061193,-0.20243239541111296,0
470,0.018799999999999928,4.99972120164681,-0.2494149152643444,-0.1900423828126817,0
471,0.018839999999999968,4.999392411494816,-0.23757848498839296,-0.17831011451548978,0
472,0.018880000000000008,5.000378781950543,-0.22541326479695517,-0.16624922059745761,0
473,0.018920000000000048,5.000049991798719,-0.21423441364495155,-0.1551748592714607,0
474,0.018960000000000088,4.99972120164681,-0.20338435208186884,-0.14442945034367333,0
475,0.018999999999999906,4.99972120164681,-0.1945070288746319,-0.13565694183644805,0
476,0.019039999999999946,5.000049991798719,-0.1869448645830749,-0.12819975356379507,0
477,0.019079999999999986,5.001036362253937,-0.18102664900062287,-0.12238667457207106,0
478,0.019120000000000026,4.99972120164681,-0.17576601289060007,-0.11723133487629565,0
479,0.019160000000000066,5.000049991798719,-0.1737932743404409,-0.11536405181436979,0
480,0.019200000000000106,5.000049991798719,-0.16984779722557486,-0.11152418851096811,0
481,0.019239999999999924,4.99972120164681,-0.16886142794382974,-0.11064359061194978,0
482,0.019279999999999964,5.000049991798719,-0.16754626889961982,-0.10943435976855469,0
483,0.019320000000000004,5.000707572102282,-0.16655989961505047,-0.10855407474851551,0
484,0.019360000000000044,4.99972120164681,-0.16458716104228271,-0.10668757574843014,0
485,0.019400000000000084,5.000049991798719,-0.16261442246467878,-0.10482123129491483,0
486,0.019439999999999902,4.999063621342738,-0.1603128941180325,-0.10262625086584237,0
487,0.019479999999999942,5.000049991798719,-0.15965531458921167,-0.10207537228899212,0
488,0.019519999999999982,5.001036362253937,-0.1583401555299606,-0.10086706645586031,0
489,0.019560000000000022,5.000707572102282,-0.1501204113610753,-0.09275432702584302,0
490,0.019600000000000062,5.000707572102282,-0.14749009320937,-0.09023116436321071,0
491,0.019640000000000102,4.998734831190575,-0.13894155915730816,-0.08178993578674698,0
492,0.01967999999999992,5.000049991798719,-0.13039302501516953,-0.07334885634192362,0
493,0.01971999999999996,5.001693942556992,-0.11855659297780442,-0.06162002745766291,0
494,0.01976,4.999063621342738,-0.10507621183742798,-0.04824739715913961,0
495,0.01980000000000004,5.001693942556992,-0.08863672234206758,-0.03191580542623665,0
496,0.01984000000000008,4.997419670581074,-0.07844423869021762,-0.021831365688207774,0
497,0.019879999999999898,5.002351522859708,-0.06364869768191721,-0.007144013974763552,0
498,0.019919999999999938,5.000378781950543,-0.05279863410837703,0.003597715694293846,0
499,0.019959999999999978,5.000049991798719,-0.04129099077011207,0.014996881290929617,0
500,0.020000000000000018,4.999063621342738,-0.03274245561641449,0.023436795639395394,0
501,0.020040000000000058,4.999063621342738,-0.026824238920549456,0.029246249241025424,0
502,0.020080000000000098,4.99972120164681,-0.023536340738185738,0.0324252428157978,0
503,0.020119999999999916,5.000049991798719,-0.020248442542986647,0.03560409566673531,0
504,0.020159999999999956,5.000378781950543,-0.022549971280973066,0.03319338162553405,0
505,0.020199999999999996,5.000378781950543,-0.024193920375685754,0.031440108047392834,0
506,0.020240000000000036,4.99972120164681,-0.028796977823800904,0.026727587715389578,0
507,0.020280000000000076,5.000378781950543,-0.035043984320212454,0.020370980715390632,0
508,0.020319999999999894,5.000049991798719,-0.04063341114600001,0.01467181654807477,0
509,0.020359999999999934,4.99972120164681,-0.046551627744407784,0.00864372655294593,0
510,0.020399999999999974,4.99972120164681,-0.05378500352999273,0.001300342099176982,0
511,0.020440000000000014,5.000049991798719,-0.0626623282719858,-0.007687125797759861,0
512,0.020480000000000054,5.000378781950543,-0.06956691411691203,-0.014701988498721508,0
513,0.020520000000000094,5.000049991798719,-0.07844423869021762,-0.02368972284252953,0
514,0.02055999999999991,5.000378781950543,-0.08732156316825516,-0.03267758921796377,0
515,0.02059999999999995,5.000378781950543,-0.09850041607873007,-0.0439671153642171,0
516,0.02063999999999999,4.999392411494816,-0.10737774034052165,-0.0529552434107248,0
517,0.02068000000000003,5.000049991798719,-0.11592627472395621,-0.06161471133744602,0
518,0.02072000000000007,4.99972120164681,-0.1251323885753416,-0.07093188769940689,0
519,0.02076000000000011,5.000378781950543,-0.13137939434385165,-0.0772900841535935,0
520,0.02079999999999993,5.000378781950543,-0.13631124096930963,-0.08233324884674353,0
521,0.02083999999999997,5.000049991798719,-0.13992792847560936,-0.08606138100877597,0
522,0.02088000000000001,4.99972120164681,-0.14157187733677873,-0.08781690031886276,0
523,0.02092000000000005,5.000378781950543,-0.14255824665188005,-0.0889149650803378,0
524,0.02096000000000009,4.99972120164681,-0.14157187733677873,-0.08804041541247426,0
525,0.020999999999999908,5.000378781950543,-0.13959913870297558,-0.08617961982932516,0
526,0.021039999999999948,5.000049991798719,-0.1379551898378077,-0.08464773661993305,0
527,0.021079999999999988,5.000049991798719,-0.13072181479152978,-0.07752654903541985,0
528,0.021120000000000028,5.000378781950543,-0.12578996813217858,-0.07270701084385964,0
529,0.021160000000000068,5.000707572102282,-0.12085812144297166,-0.06788759282768607,0
530,0.021200000000000108,5.000049991798719,-0.11526869515917111,-0.06241071462056454,0
531,0.021239999999999926,4.99972120164681,-0.11099442797517921,-0.058249114114496583,0
532,0.021279999999999966,4.99972120164681,-0.10639137098284411,-0.053758841598134106,0
533,0.021320000000000006,5.000049991798719,-0.10211710375253198,-0.04959747583785996,0
534,0.021360000000000046,5.000049991798719,-0.09948678544589158,-0.047080175190561374,0
535,0.021400000000000086,4.99972120164681,-0.09619888755075014,-0.0439054103385344,0
536,0.021439999999999904,5.000049991798719,-0.09389735901632983,-0.04171712942470908,0
537,0.021479999999999944,5.000049991798719,-0.09356856922517286,-0.04150170102458316,0
538,0.021519999999999984,5.000049991798719,-0.09225341005923197,-0.04030001621232133,0
539,0.021560000000000024,4.999392411494816,-0.09554130797014417,-0.0437015006310377,0
540,0.021600000000000064,5.000378781950543,-0.09619888755075014,-0.044472778064324,0
541,0.021640000000000104,4.99972120164681,-0.10080194460026483,-0.049189643501429015,0
542,0.02167999999999992,5.000378781950543,-0.10540500162397977,-0.053906618636969626,0
543,0.02171999999999996,5.000049991798719,-0.10573379141039972,-0.05434943544807609,0
544,0.02176,5.000049991798719,-0.1103368484064295,-0.05906662756958772,0
545,0.02180000000000004,5.000049991798719,-0.11493990537658023,-0.063783926953268,0
546,0.02184000000000008,4.99972120164681,-0.11691264407014172,-0.0658710145349856,0
547,0.0218799999999999,5.000378781950543,-0.12151570100325589,-0.07058852601679681,0
548,0.02191999999999994,4.99972120164681,-0.12381722946007585,-0.07300461386811335,0
549,0.02195999999999998,5.001036362253937,-0.126118757910398,-0.07542080574334334,0
550,0.02200000000000002,4.99972120164681,-0.12842028635421754,-0.07783710082645572,0
551,0.02204000000000006,5.000049991798719,-0.13039302501516953,-0.07992470852443022,0
552,0.0220800000000001,5.000378781950543,-0.13072181479152978,-0.08036846891826692,0
553,0.022119999999999918,5.000378781950543,-0.13203697389564184,-0.08179869940242203,0
554,0.022159999999999958,5.000378781950543,-0.1310506045677572,-0.08092750139865698,0
555,0.022199999999999998,4.999392411494816,-0.13137939434385165,-0.0813715616238636,0
556,0.022240000000000038,5.000378781950543,-0.1297354454620503,-0.07984298149649786,0
557,0.022280000000000078,5.000707572102282,-0.1290778659083996,-0.079300868182361,0
558,0.022319999999999895,4.99972120164681,-0.12940665568529136,-0.07974522086303232,0
559,0.022359999999999935,5.000049991798719,-0.12874907613137498,-0.07920330005579049,0
560,0.022399999999999975,5.000049991798719,-0.12809149657692737,-0.0786614742689921,0
561,0.022440000000000015,4.99972120164681,-0.12710512724426004,-0.07779095290248768,0
562,0.022480000000000055,5.000049991798719,-0.12546117835382642,-0.07626294535373804,0
563,0.022520000000000095,5.000378781950543,-0.12447480901797399,-0.07539260991157533,0
564,0.022559999999999913,5.000049991798719,-0.12447480901797399,-0.07550873553324154,0
565,0.022599999999999953,5.000378781950543,-0.12052933166263081,-0.071679474703007,0
566,0.022639999999999993,5.000049991798719,-0.11954296232081356,-0.07080941196471101,0
567,0.022680000000000033,5.000049991798719,-0.11625506450615032,-0.06763791000646509,0
568,0.022720000000000073,4.99972120164681,-0.11526869515917111,-0.06676802494280487,0
569,0.022760000000000113,5.000049991798719,-0.11230958711109378,-0.06392548877848508,0
570,0.02279999999999993,5.000378781950543,-0.10967926883715166,-0.06141182916181613,0
571,0.02283999999999997,4.99972120164681,-0.10639137098284411,-0.05824067591092363,0
572,0.02288000000000001,5.000049991798719,-0.10408984247698179,-0.05605597712680281,0
573,0.02292000000000005,5.000378781950543,-0.1027746833278755,-0.054857731989516705,0
574,0.02296000000000009,5.001036362253937,-0.10047315481186896,-0.05267320094673779,0
575,0.02299999999999991,5.000049991798719,-0.09784283649996468,-0.050159962740383215,0
576,0.02303999999999995,5.000707572102282,-0.09619888755075014,-0.04863317569955013,0
577,0.02307999999999999,5.000049991798719,-0.09389735901632983,-0.046448890046456984,0
578,0.02312000000000003,5.000049991798719,-0.09192462026741856,-0.04459347432154595,0
579,0.02316000000000007,5.000049991798719,-0.09126704068339796,-0.04405329707354859,0
580,0.02320000000000011,5.000378781950543,-0.09258219985091413,-0.04548593705809268,0
581,0.023239999999999927,5.000049991798719,-0.09192462026741856,-0.04494591594125216,0
582,0.023279999999999967,4.99972120164681,-0.09389735901632983,-0.04703628997471798,0
583,0.023320000000000007,5.000049991798719,-0.09587009776051285,-0.049126739989286586,0
584,0.023360000000000047,5.000049991798719,-0.09882920586791545,-0.052203634520505623,0
585,0.023400000000000087,5.000049991798719,-0.10178831396466272,-0.05528060336177749,0
586,0.023439999999999905,5.000049991798719,-0.10507621183742798,-0.05868643546673954,0
587,0.023479999999999945,5.000049991798719,-0.1106656381908704,-0.06439386870671085,0
588,0.023519999999999985,5.000378781950543,-0.11526869515917111,-0.06911500438223739,0
589,0.023560000000000025,4.99972120164681,-0.12184449078319924,-0.07580894970026754,0
590,0.023600000000000065,4.99972120164681,-0.12809149657692737,-0.08217417534057671,0
591,0.023640000000000105,5.000049991798719,-0.13565366142097834,-0.08985462934932326,0
592,0.023679999999999923,4.99972120164681,-0.14255824665188005,-0.09687757222831248,0
593,0.023719999999999963,5.000378781950543,-0.14979162159258003,-0.10422937246552055,0
594,0.023760000000000003,5.000049991798719,-0.15768257599953056,-0.11223881898218871,0
595,0.023800000000000043,5.000049991798719,-0.16425837127968446,-0.11893317234982827,0
596,0.023840000000000083,5.000049991798719,-0.16984779722557486,-0.12464122152530974,0
597,0.0238799999999999,5.001036362253937,-0.1754372231325772,-0.13034933496813383,0
598,0.02391999999999994,5.000378781950543,-0.18201301826740535,-0.13704388110893695,0
599,0.02395999999999998,4.999392411494816,-0.18793123384255755,-0.1430809103239463,0
600,0.02400000000000002,4.999392411494816,-0.19253429037070002,-0.14780284228937274,0
601,0.02404000000000006,5.000378781950543,-0.19647976737368184,-0.15186725569043513,0
602,0.0240800000000001,5.000378781950543,-0.19845250586784702,-0.1539589907066813,0
603,0.02411999999999992,5.000049991798719,-0.2020691930944527,-0.15769473374241527,0
604,0.02415999999999996,5.000707572102282,-0.20437072132100315,-0.16011537622804087,0
605,0.0242,5.000378781950543,-0.20371314182838302,-0.1595769686072036,0
606,0.02424000000000004,5.000049991798719,-0.2046995110671092,-0.16068256649305218,0
607,0.02428000000000008,5.000049991798719,-0.20601467005017304,-0.1621170100610897,0
608,0.024319999999999897,5.000049991798719,-0.20502830081307927,-0.1612499805092218,0
609,0.024359999999999937,5.000378781950543,-0.20502830081307927,-0.16136937445699961,0
610,0.024399999999999977,5.000049991798719,-0.20437072132100315,-0.1608312423374607,0
611,0.024440000000000017,4.99972120164681,-0.2027267725884327,-0.1593067935643112,0
612,0.024480000000000057,5.000707572102282,-0.20075403410486176,-0.15745360678909556,0
613,0.024520000000000097,4.999392411494816,-0.19779492637033497,-0.15461410167384426,0
614,0.024559999999999915,5.000049991798719,-0.1954933981247673,-0.1524322261204027,0
615,0.024599999999999955,5.000378781950543,-0.19319186987255288,-0.15025039979504956,0
616,0.024639999999999995,5.000378781950543,-0.19056155186188928,-0.14773983210783065,0
617,0.024680000000000035,5.000707572102282,-0.18760244408953197,-0.14490052221732264,0
618,0.024720000000000075,5.000378781950543,-0.18497212606045715,-0.1423900487903047,0
619,0.024759999999999893,5.000378781950543,-0.18168422851194627,-0.1392220417258525,0
620,0.024799999999999933,5.000378781950543,-0.178067541192985,-0.13572528993474675,0
621,0.024839999999999973,5.000049991798719,-0.17642359240624145,-0.13420132088146075,0
622,0.024880000000000013,5.000049991798719,-0.1744508538576997,-0.13234860543380322,0
623,0.024920000000000053,5.000049991798719,-0.17313569482264318,-0.13115351202891085,0
624,0.024960000000000093,5.000378781950543,-0.17017658698588745,-0.12831451151349038,0
625,0.02499999999999991,5.000707572102282,-0.16853263818297903,-0.12679071088502686,0
626,0.02503999999999995,4.99972120164681,-0.16754626889961982,-0.1259245297912174,0
627,0.02507999999999999,5.000378781950543,-0.1652447405670761,-0.12374322882538973,0
628,0.02512000000000003,5.000378781950543,-0.16360079175408504,-0.1222195457184179,0
629,0.02516000000000007,5.000378781950543,-0.16261442246467878,-0.12135347963655568,0
630,0.02520000000000011,5.000049991798719,-0.16097047364631673,-0.11982987068957857,0
631,0.02523999999999993,4.99972120164681,-0.1606416838822417,-0.11962145662314899,0
632,0.02527999999999997,5.000049991798719,-0.15801136576481256,-0.11711154919215837,0
633,0.02532000000000001,5.000049991798719,-0.15768257599953056,-0.11690320426476301,0
634,0.02536000000000005,5.000049991798719,-0.15538104763880373,-0.1147221540561578,0
635,0.02540000000000009,5.000049991798719,-0.15307951927151348,-0.11254113631815169,0
636,0.025439999999999907,5.001365152405508,-0.15077799089766464,-0.11036015021382733,0
637,0.025479999999999947,5.000049991798719,-0.14946283182395104,-0.10916556421311599,0
638,0.025519999999999987,5.000049991798719,-0.14749009320937,-0.10731342863842139,0
639,0.025560000000000027,5.000049991798719,-0.14749009320937,-0.1074340608087766,0
640,0.025600000000000067,5.000049991798719,-0.14650372390027555,-0.10656835196427847,0
641,0.025640000000000107,5.000378781950543,-0.14551735458997894,-0.10570267057678859,0
642,0.025679999999999925,5.000049991798719,-0.14485977504911357,-0.10516580558111616,0
643,0.025719999999999965,5.000049991798719,-0.14387340573681423,-0.10430017660078775,0
644,0.025760000000000005,5.000378781950543,-0.14354461596578083,-0.10409215211312002,0
645,0.025800000000000045,5.000049991798719,-0.14321582619461398,-0.10388415174156446,0
646,0.025840000000000085,5.000049991798719,-0.14190066710861254,-0.1026898053365144,0
647,0.025879999999999903,4.99972120164681,-0.14190066710861254,-0.10281064046415307,0
648,0.025919999999999943,5.000049991798719,-0.13992792847560936,-0.10095875857108512,0
649,0.025959999999999983,4.999392411494816,-0.13861276938427458,-0.09976447699786287,0
650,0.026000000000000023,5.000049991798719,-0.1379551898378077,-0.0992277949138476,0
651,0.026040000000000063,5.000049991798719,-0.13565366142097834,-0.0970471830702612,0
652,0.026080000000000103,4.99972120164681,-0.1336809227727903,-0.09519537927285907,0
653,0.02611999999999992,5.000049991798719,-0.1336809227727903,-0.09531633156824831,0
654,0.02615999999999996,5.000049991798719,-0.1310506045677572,-0.09280698227058612,0
655,0.0262,4.99972120164681,-0.13006423523867633,-0.09194159762856337,0
656,0.02624000000000004,5.000049991798719,-0.1297354454620503,-0.09173380748672443,0
657,0.02628000000000008,5.000049991798719,-0.12842028635421754,-0.09053966212979495,0
658,0.0263199999999999,5.000049991798719,-0.1290778659083996,-0.09131826871973849,0
659,0.02635999999999994,5.000378781950543,-0.1267763374664388,-0.08913777976750359,0
660,0.02639999999999998,5.000378781950543,-0.1267763374664388,-0.0892588308806736,0
661,0.02644000000000002,4.999392411494816,-0.12710512724426004,-0.08970868256497141,0
662,0.02648000000000006,5.000049991798719,-0.12447480901797399,-0.08719943620872295,0
663,0.0265200000000001,4.999063621342738,-0.12546117835382642,-0.08830688654882952,0
664,0.026559999999999917,4.99972120164681,-0.12480359879672413,-0.08777039630126399,0
665,0.026599999999999957,5.000049991798719,-0.12283086012223408,-0.08591875441307915,0
666,0.026639999999999997,5.000049991798719,-0.12348843968092783,-0.08669743740676153,0
667,0.026680000000000037,4.999392411494816,-0.12315964990164728,-0.08648975688350621,0
668,0.026720000000000077,4.999392411494816,-0.12184449078319924,-0.08529571201492066,0
669,0.026759999999999895,4.99972120164681,-0.12283086012223408,-0.08640319977091282,0
670,0.026799999999999935,4.99972120164681,-0.11987175210155175,-0.08356521350800622,0
671,0.026839999999999975,4.99972120164681,-0.12020054188215752,-0.08401512756140499,0
672,0.026880000000000015,5.000378781950543,-0.12020054188215752,-0.08413625352389843,0
673,0.026920000000000055,4.99972120164681,-0.11888538275893985,-0.08294222122805142,0
674,0.026960000000000095,4.99972120164681,-0.11789901341513638,-0.08207697875217536,0
675,0.026999999999999913,4.99972120164681,-0.11724143385193893,-0.08154052527365371,0
676,0.027039999999999953,5.000049991798719,-0.11625506450615032,-0.08067528040600241,0
677,0.027079999999999993,4.999392411494816,-0.11658385428821218,-0.08112519223690697,0
678,0.027120000000000033,4.99972120164681,-0.11395353602801415,-0.07861599277404079,0
679,0.027160000000000073,5.000049991798719,-0.11395353602801415,-0.07873710749819458,0
680,0.027200000000000113,5.000049991798719,-0.11395353602801415,-0.07885821732806136,0
681,0.02723999999999993,4.99972120164681,-0.11329595646164246,-0.07832174187672786,0
682,0.02727999999999997,5.000049991798719,-0.1136247462448944,-0.07877162924022452,0
683,0.02732000000000001,4.99972120164681,-0.11329595646164246,-0.07856392968304488,0
684,0.02736000000000005,5.000378781950543,-0.11296716667825839,-0.07835622195277682,0
685,0.02740000000000009,5.000707572102282,-0.11296716667825839,-0.07847729501475717,0
686,0.02743999999999991,4.99972120164681,-0.1116520075434007,-0.07728319913317853,0
687,0.02747999999999995,5.000378781950543,-0.1116520075434007,-0.07740425176081353,0
688,0.02751999999999999,5.000049991798719,-0.11329595646164246,-0.07916924186473531,0
689,0.02756000000000003,4.99972120164681,-0.1136247462448944,-0.07961906057604237,0
690,0.02760000000000007,5.000378781950543,-0.11493990537658023,-0.08105523556313862,0
691,0.02764000000000011,4.99972120164681,-0.11461111559385707,-0.08084744774882043,0
692,0.027679999999999927,5.000049991798719,-0.11559748494162976,-0.08195480436430004,0
693,0.027719999999999967,5.000049991798719,-0.11888538275893985,-0.08536367393560378,0
694,0.027760000000000007,4.99972120164681,-0.1182278031965366,-0.0848270498011519,0
695,0.027800000000000047,4.99972120164681,-0.11691264407014172,-0.08363282896503269,0
696,0.027840000000000087,4.999063621342738,-0.12085812144297166,-0.08769922667953367,0
697,0.027879999999999905,5.002022732708393,-0.12184449078319924,-0.08880649760261247,0
698,0.027919999999999945,4.99972120164681,-0.12217328056301004,-0.08925616939696228,0
699,0.027959999999999985,5.000707572102282,-0.12644754768848476,-0.09365129815990325,0
700,0.028000000000000025,5.001036362253937,-0.12250207034268835,-0.08982666126648058,0
701,0.028040000000000065,4.998406041038327,-0.12578996813217858,-0.09323537751598218,0
702,0.028080000000000105,5.000707572102282,-0.12118691122318002,-0.0887531162681217,0
703,0.028119999999999923,5.000378781950543,-0.12151570100325589,-0.0892026781047193,0
704,0.028159999999999963,4.998406041038327,-0.11757022363360382,-0.08537794838200685,0
705,0.028200000000000003,4.99972120164681,-0.12020054188215752,-0.08812898906373834,0
706,0.028240000000000043,5.001365152405508,-0.11625506450615032,-0.08430420810376259,0
707,0.028280000000000083,5.000378781950543,-0.11855659297780442,-0.08672640617172146,0
708,0.0283199999999999,5.000378781950543,-0.11691264407014172,-0.08520309923886947,0
709,0.02835999999999994,4.99972120164681,-0.11691264407014172,-0.08532371279124068,0
710,0.02839999999999998,5.000378781950543,-0.11658385428821218,-0.08511550733912834,0
711,0.02844000000000002,5.001036362253937,-0.11493990537658023,-0.08359211273548511,0
712,0.02848000000000006,4.99972120164681,-0.11625506450615032,-0.08502779535278986,0
713,0.0285200000000001,5.000378781950543,-0.11493990537658023,-0.08383312809313286,0
714,0.02855999999999992,5.000378781950543,-0.11395353602801415,-0.08296721819995771,0
715,0.02859999999999996,5.002351522859708,-0.11428232581100171,-0.0834164342279896,0
716,0.02864,5.001693942556992,-0.11296716667825839,-0.08222166733500458,0
717,0.02868000000000004,5.000707572102282,-0.11198079732731327,-0.08135565542448629,0
718,0.02872000000000008,5.000049991798719,-0.1136247462448944,-0.08311992619002033,0
719,0.028759999999999897,5.000049991798719,-0.11230958711109378,-0.08192505251946805,0
720,0.028799999999999937,4.99972120164681,-0.11132321775935598,-0.08105893145496432,0
721,0.028839999999999977,5.000049991798719,-0.1100080586218566,-0.07986398263830476,0
722,0.028880000000000017,5.000707572102282,-0.1103368484064295,-0.08031294398788191,0
723,0.028920000000000057,4.99972120164681,-0.10935047905231472,-0.07944670665444195,0
724,0.028960000000000097,5.000049991798719,-0.10770653012615032,-0.07792284941708529,0
725,0.028999999999999915,4.99972120164681,-0.10869289948224485,-0.07902926934354795,0
726,0.029039999999999955,5.000378781950543,-0.10737774034052165,-0.07783411886815472,0
727,0.029079999999999995,5.000378781950543,-0.10672016076886852,-0.07729650527417767,0
728,0.029120000000000035,5.000378781950543,-0.10573379141039972,-0.0764300584211069,0
729,0.029160000000000075,5.000049991798719,-0.10408984247698179,-0.07490598773818517,0
730,0.029200000000000115,5.000049991798719,-0.10408984247698179,-0.07502582095216515,0
731,0.029239999999999933,5.000378781950543,-0.10376105268990284,-0.07481681856195342,0
732,0.029279999999999973,5.000049991798719,-0.10376105268990284,-0.07493655936213807,0
733,0.029320000000000013,5.000049991798719,-0.10178831396466272,-0.07308351406186564,0
734,0.029360000000000053,5.000049991798719,-0.1024458935402696,-0.07386073890973295,0
735,0.029400000000000093,4.999063621342738,-0.10145952417666172,-0.07299396588924084,0
736,0.02943999999999991,4.99972120164681,-0.0998155752346823,-0.07146956358585671,0
737,0.02947999999999995,4.99972120164681,-0.09652767734085597,-0.06830116185179962,0
738,0.02951999999999999,4.99972120164681,-0.09652767734085597,-0.06842060675951629,0
739,0.02956000000000003,5.000049991798719,-0.0971852569206733,-0.0691975792228591,0
740,0.02960000000000007,5.000049991798719,-0.09652767734085597,-0.068659339731334,0
741,0.02964000000000011,5.000378781950543,-0.09685646713083039,-0.06910741604443049,0
742,0.02967999999999993,4.99972120164681,-0.09685646713083039,-0.06922664823355945,0
743,0.02971999999999997,5.000378781950543,-0.0971852569206733,-0.06967461511083761,0
744,0.02976000000000001,5.000049991798719,-0.09652767734085597,-0.06913615675019222,0
745,0.02980000000000005,4.99972120164681,-0.09685646713083039,-0.06958401112564516,0
746,0.02984000000000009,5.000049991798719,-0.0971852569206733,-0.07003180810299119,0
747,0.029879999999999907,4.999392411494816,-0.0971852569206733,-0.0701507571293935,0
748,0.029919999999999947,4.999392411494816,-0.09521251817964406,-0.06829690849170553,0
749,0.029959999999999987,5.000049991798719,-0.09554130797014417,-0.06874452870169932,0
750,0.030000000000000027,5.000378781950543,-0.09685646713083039,-0.07017845783842729,0
751,0.030040000000000067,5.000378781950543,-0.09619888755075014,-0.06963958703252308,0
752,0.030080000000000107,4.999063621342738,-0.09554130797014417,-0.06910065426701284,0
753,0.030119999999999925,5.000378781950543,-0.09488372838901253,-0.06856165878588949,0
754,0.030159999999999965,4.99972120164681,-0.09291098964246501,-0.06670744066947167,0
755,0.030200000000000005,5.000049991798719,-0.09225341005923197,-0.06616831749292296,0
756,0.030240000000000045,5.000049991798719,-0.09126704068339796,-0.06530033954799391,0
757,0.030280000000000085,5.000049991798719,-0.08929430192818714,-0.06344592649681603,0
758,0.030319999999999903,4.99972120164681,-0.08830793254881113,-0.06257781634475786,0
759,0.030359999999999943,5.000378781950543,-0.08666398358056253,-0.06105205937852702,0
760,0.030399999999999983,4.99972120164681,-0.08534882440360501,-0.059855024230968674,0
761,0.030440000000000023,5.000707572102282,-0.0843624550195116,-0.058986710157612164,0
762,0.030480000000000063,5.000049991798719,-0.08337608563423975,-0.05811832661965438,0
763,0.030520000000000103,5.000378781950543,-0.08173213665616903,-0.056592293282005976,0
764,0.03055999999999992,5.000049991798719,-0.08107455706402487,-0.05605255838122332,0
765,0.03059999999999996,4.99972120164681,-0.08041697747135755,-0.05551275178999587,0
766,0.03064,5.000378781950543,-0.08008818767482774,-0.05530166256544,0
767,0.03068000000000004,4.999392411494816,-0.07877302848740105,-0.05410413078230172,0
768,0.03072000000000008,5.000049991798719,-0.07778665909545869,-0.05323531489007563,0
769,0.0307599999999999,5.000049991798719,-0.07647149990437309,-0.05203763455858878,0
770,0.03079999999999994,4.99972120164681,-0.07384118151593398,-0.04952471965543495,0
771,0.03083999999999998,4.99972120164681,-0.07285481211811588,-0.04865567763575025,0
772,0.03088000000000002,4.999063621342738,-0.07055328351864205,-0.04647139957578526,0
773,0.03092000000000006,5.000378781950543,-0.06825175491278114,-0.044287043940709994,0
774,0.0309600000000001,4.99972120164681,-0.06693659570656622,-0.043088979407841003,0
775,0.030999999999999917,4.99972120164681,-0.06364869768191721,-0.039918097031771994,0
776,0.031039999999999957,5.000378781950543,-0.059045640425562415,-0.03543197567330344,0
777,0.031079999999999997,4.99972120164681,-0.05608653217589139,-0.03258972284630352,0
778,0.031120000000000037,5.000049991798719,-0.052469844300912574,-0.02908980919567393,0
779,0.031160000000000077,5.000049991798719,-0.05148347487774181,-0.028220132076846358,0
780,0.031199999999999894,5.000378781950543,-0.048853156410254436,-0.02570642327344283,0
781,0.031239999999999934,5.000049991798719,-0.046880417554202566,-0.02385021072240097,0
782,0.031279999999999974,5.000378781950543,-0.04589404812443025,-0.02298028352119707,0
783,0.031320000000000014,5.000707572102282,-0.04326372963934923,-0.02046632247232983,0
784,0.031360000000000054,5.000049991798719,-0.04392130926139491,-0.021240174023784336,0
785,0.031400000000000095,5.000049991798719,-0.04523646850393555,-0.02267151897594915,0
786,0.03143999999999991,5.000049991798719,-0.046551627744407784,-0.024102776994759774,0
787,0.03147999999999995,5.000049991798719,-0.04819557679208804,-0.025862737179477888,0
788,0.03151999999999999,5.000378781950543,-0.04951073602790314,-0.02729381920250993,0
789,0.03156000000000003,5.000378781950543,-0.05049710545340523,-0.028396022358389787,0
790,0.03160000000000007,4.99972120164681,-0.05312742391571186,-0.031142084788726838,0
791,0.03164000000000011,5.000378781950543,-0.052469844300912574,-0.030600158675620437,0
792,0.03167999999999993,5.000049991798719,-0.05378500352999273,-0.032030880237591416,0
793,0.03171999999999997,5.000049991798719,-0.05510016275699865,-0.033461509927755255,0
794,0.03176000000000001,5.000049991798719,-0.053456213722917104,-0.0319329387877092,0
795,0.03180000000000005,5.000707572102282,-0.054113793336938706,-0.03270580302880355,0
796,0.03184000000000009,4.999392411494816,-0.05444258314375501,-0.03314978349944647,0
797,0.03187999999999991,5.000049991798719,-0.054113793336938706,-0.03293608969849195,0
798,0.03191999999999995,5.000378781950543,-0.05312742391571186,-0.032064720932015636,0
799,0.03195999999999999,5.000378781950543,-0.05279863410837703,-0.03185083573675379,0
800,0.03200000000000003,5.000049991798719,-0.05148347487774181,-0.030650484385535377,0
801,0.03204000000000007,4.99972120164681,-0.05181226468559495,-0.031093984651765903,0
802,0.03208000000000011,4.99972120164681,-0.0498395258365333,-0.029235858153261973,0
803,0.032119999999999926,4.99972120164681,-0.04951073602790314,-0.0290215819022002,0
804,0.032159999999999966,5.000378781950543,-0.0491819462191435,-0.028807206174468046,0
805,0.032200000000000006,5.000049991798719,-0.047537997173404054,-0.02727757105128929,0
806,0.032240000000000046,5.000049991798719,-0.04720920736386795,-0.027062994325554358,0
807,0.032280000000000086,5.000378781950543,-0.045565258314247556,-0.02553315684232368,0
808,0.032319999999999904,5.000378781950543,-0.044907678693494255,-0.024989586593544968,0
809,0.032359999999999944,5.000049991798719,-0.0445788888829237,-0.02477470328518594,0
810,0.032399999999999984,5.000378781950543,-0.04161978058197445,-0.021929397943000414,0
811,0.032440000000000024,5.000378781950543,-0.04096220095812057,-0.02138551706244832,0
812,0.032480000000000064,5.000378781950543,-0.03866067227056637,-0.019197582232397762,0
813,0.032520000000000104,5.000049991798719,-0.03668793339048888,-0.017338331655374937,0
814,0.03255999999999992,4.999063621342738,-0.037016723204157484,-0.017780503550691135,0
815,0.03259999999999996,5.000378781950543,-0.03603035376276496,-0.016907409304281133,0
816,0.03264,4.99972120164681,-0.035372774134525484,-0.016362997320808505,0
817,0.03268000000000004,4.99972120164681,-0.0340576148765004,-0.015160897495498697,0
818,0.03272000000000008,4.99972120164681,-0.031756086169998185,-0.01297231934954627,0
819,0.0327599999999999,5.001036362253937,-0.030769716722423582,-0.012098790931971228,0
820,0.03279999999999994,5.000049991798719,-0.029783347273691016,-0.011225152326039725,0
821,0.03283999999999998,5.000049991798719,-0.029454557457189598,-0.011008982510236326,0
822,0.03288000000000002,5.000049991798719,-0.028139398189897927,-0.009806331748385924,0
823,0.03292000000000006,5.000049991798719,-0.02715302873807933,-0.008932358655356184,0
824,0.0329600000000001,5.000378781950543,-0.026824238920549456,-0.008715852400332232,0
825,0.03299999999999992,4.999392411494816,-0.026166659285104213,-0.00817044288325169,0
826,0.03303999999999996,5.000378781950543,-0.024522710194243194,-0.006638549820535265,0
827,0.03308,4.99972120164681,-0.024193920375685754,-0.006421701295609875,0
828,0.03312000000000004,5.000049991798719,-0.024851500012672237,-0.007191106849216863,0
829,0.03316000000000008,5.000049991798719,-0.023536340738185738,-0.005987657473640884,0
830,0.033199999999999896,4.999392411494816,-0.023536340738185738,-0.006099250715950504,0
831,0.033239999999999936,5.000049991798719,-0.023536340738185738,-0.006210726664582923,0
832,0.033279999999999976,4.999392411494816,-0.023536340738185738,-0.006322084684283295,0
833,0.033320000000000016,4.999392411494816,-0.0228787611001723,-0.005775744503611756,0
834,0.033360000000000056,5.000049991798719,-0.022221181461645576,-0.0052292851284773435,0
835,0.033400000000000096,5.000049991798719,-0.022221181461645576,-0.005340285568171149,0
836,0.033439999999999914,4.99972120164681,-0.021563601822605624,-0.004793585917226586,0
837,0.033479999999999954,4.99972120164681,-0.020577232363083744,-0.003917975368157602,0
838,0.033519999999999994,4.99972120164681,-0.02090602218305261,-0.004357402396755361,0
839,0.033560000000000034,5.000049991798719,-0.020248442542986647,-0.0038103376411821495,0
840,0.033600000000000074,4.99972120164681,-0.017618123977595282,-0.0012904110157113402,0
841,0.033640000000000114,5.000378781950543,-0.01860449344057817,-0.002387048855489328,0
842,0.03367999999999993,5.000049991798719,-0.01696054433496612,-0.000853243946883249,0
843,0.03371999999999997,5.000049991798719,-0.014330225759327644,0.0016670552263058323,0
844,0.03376000000000001,5.000049991798719,-0.01564538504817102,0.00024200194243422998,0
845,0.03380000000000005,5.000049991798719,-0.014330225759327644,0.0014473932546256382,0
846,0.03384000000000009,5.000378781950543,-0.0116999071754995,0.003968070489217088,0
847,0.03387999999999991,5.000049991798719,-0.011042327528263687,0.004516136021747805,0
848,0.03391999999999995,5.000049991798719,-0.00939837840793746,0.006050698867087662,0
849,0.03395999999999999,5.001036362253937,-0.007425639459330238,0.007914179983678656,0
850,0.03400000000000003,4.99972120164681,-0.005124110680146385,0.010106579975125603,0
851,0.03404000000000007,5.000707572102282,-0.0028225818947114484,0.012299109616463428,0
852,0.03408000000000011,4.99972120164681,-0.0015074225859438989,0.01350540002217893,0
853,0.03411999999999993,5.000049991798719,0.0014516858662357995,0.016355770407795275,0
854,0.03415999999999997,4.999063621342738,0.004410794328726292,0.019206272233686678,0
855,0.03420000000000001,4.99972120164681,0.008027482463535476,0.022714485753362178,0
856,0.03424000000000005,5.000378781950543,0.010986590948902406,0.025565252234581226,0
857,0.03428000000000009,5.000049991798719,0.012630540111881347,0.027100992591931425,0
858,0.034319999999999906,5.000049991798719,0.016576018115963126,0.030938395574443577,0
859,0.034359999999999946,4.99972120164681,0.02117907581044083,0.03543351261495104,0
860,0.034399999999999986,4.99972120164681,0.025124553854007567,0.03927118495368125,0
861,0.034440000000000026,4.99972120164681,0.029398821755059465,0.04343778267855257,0
862,0.034480000000000066,5.000378781950543,0.033015509995673945,0.04694693684914636,0
863,0.034520000000000106,4.99972120164681,0.03696098809372539,0.05078501755881648,0
864,0.034559999999999924,4.99972120164681,0.04090646620989019,0.05462323554168823,0
865,0.034599999999999964,5.000378781950543,0.04452315449893275,0.05813280152393814,0
866,0.034640000000000004,5.001036362253937,0.04682468341804723,0.060327346532129775,0
867,0.034680000000000044,4.99972120164681,0.052085320970511856,0.06548113913686195,0
868,0.034720000000000084,5.000378781950543,0.05438684990979273,0.06767596265686651,0
869,0.0347599999999999,5.000378781950543,0.05734595855501376,0.0705285059744723,0
870,0.03479999999999994,5.000049991798719,0.0626065961714958,0.07568271891613843,0
871,0.03483999999999998,4.999392411494816,0.06293538602358648,0.07590522530527818,0
872,0.03488000000000002,4.99972120164681,0.06852481352819326,0.08138851111578625,0
873,0.03492000000000006,5.000378781950543,0.07049755265605667,0.08325525087330604,0
874,0.0349600000000001,5.000049991798719,0.07082634251113593,0.08347818423460963,0
875,0.03499999999999992,5.000049991798719,0.07542940049529606,0.08797552915227899,0
876,0.03503999999999996,5.000378781950543,0.07674455992381307,0.08918511949020519,0
877,0.03508,4.99972120164681,0.07838850921225148,0.09072364421046025,0
878,0.03512000000000004,5.000049991798719,0.07970366864523482,0.09193352414206178,0
879,0.03516000000000008,4.99972120164681,0.08069003822127407,0.0928147598257957,0
880,0.0351999999999999,5.000049991798719,0.08430672667629135,0.09632646053773418,0
881,0.03523999999999994,5.000049991798719,0.08595067597897872,0.09786556878458863,0
882,0.03527999999999998,5.000707572102282,0.08660825570091973,0.09841845467382568,0
883,0.03532000000000002,5.000378781950543,0.08923857459362991,0.10094422749070213,0
884,0.03536000000000006,5.000049991798719,0.09055373404295111,0.10215498915265382,0
885,0.0354000000000001,4.99972120164681,0.09088252390559022,0.10237953004582863,0
886,0.035439999999999916,5.000049991798719,0.08989615431804343,0.1012890608340052,0
887,0.035479999999999956,4.99972120164681,0.08693704556207577,0.09822600232406702,0
888,0.035519999999999996,5.000707572102282,0.08430672667629135,0.09549188407756716,0
889,0.035560000000000036,5.000049991798719,0.07805971935431567,0.08914122830890513,0
890,0.035600000000000076,4.99972120164681,0.07016876280110178,0.08114677474162779,0
891,0.035639999999999894,5.000378781950543,0.061949016467688606,0.07282368334318212,0
892,0.035679999999999934,5.000049991798719,0.05044137173192248,0.061212846005631316,0
893,0.035719999999999974,4.99972120164681,0.03860493730659416,0.04927337195378641,0
894,0.035760000000000014,4.99972120164681,0.028083662398618273,0.03864921090438033,0
895,0.035800000000000054,5.000378781950543,0.014274489278030808,0.024737305635060117,0
896,0.035840000000000094,5.000049991798719,0.0021092655236763236,0.012469504230068793,0
897,0.03587999999999991,4.99972120164681,-0.011042327528263687,-0.0007845114712313819,0
898,0.03591999999999995,5.000049991798719,-0.020248442542986647,-0.0100928936330799,0
899,0.03595999999999999,5.000378781950543,-0.028796977823800904,-0.018743540060055124,0
900,0.03600000000000003,4.99972120164681,-0.03635914357669136,-0.026407660461645055,0
901,0.03604000000000007,4.999392411494816,-0.03931825189622702,-0.0294685664381599,0
902,0.03608000000000011,5.000049991798719,-0.04161978058197445,-0.03187173529715044,0
903,0.03611999999999993,5.000049991798719,-0.04063341114600001,-0.03098684806091523,0
904,0.03615999999999997,4.99972120164681,-0.039975831521371616,-0.03043059217500721,0
905,0.03620000000000001,5.000049991798719,-0.03668793339048888,-0.027243858836568782,0
906,0.03624000000000005,4.999063621342738,-0.035043984320212454,-0.025700915129465873,0
907,0.03628000000000009,4.99972120164681,-0.030112137090063842,-0.02086991335249267,0
908,0.03631999999999991,4.999063621342738,-0.027481818555480722,-0.018340279882631802,0
909,0.03635999999999995,5.003009103162085,-0.021234812002893247,-0.012193797530135532,0
910,0.03639999999999999,4.9970908804284875,-0.014987805404005308,-0.006047153792811913,0
911,0.03644000000000003,4.998077250885994,-0.010713537704454032,-0.0018730871446890202,0
912,0.03648000000000007,4.999392411494816,-0.0015074225859438989,0.00723298920184615,0
913,0.03652000000000011,5.000378781950543,-0.00348016154833046,0.005160374213959339,0
914,0.036559999999999926,4.999063621342738,0.003424424840084442,0.01196524778806916,0
915,0.036599999999999966,5.001365152405508,0.007041112970698912,0.015482386777988806,0
916,0.036640000000000006,4.998406041038327,0.008685062126061585,0.017026950926372048,0
917,0.036680000000000046,4.997748460733576,0.012301750279031881,0.020544418663869034,0
918,0.036720000000000086,5.001693942556992,0.015918438447348998,0.024062051463690833,0
919,0.036759999999999904,5.000049991798719,0.018548757124844717,0.02659348027281775,0
920,0.036799999999999944,4.99972120164681,0.02019270630239349,0.028138705532944962,0
921,0.036839999999999984,5.000049991798719,0.022494235156274286,0.030341676868839963,0
922,0.036880000000000024,4.999392411494816,0.023480604666976643,0.031229655707144127,0
923,0.036920000000000064,4.99972120164681,0.024795764016348754,0.03244659167351644,0
924,0.036960000000000104,5.000049991798719,0.027754872559823354,0.03530764456485514,0
925,0.03699999999999992,4.99972120164681,0.028412452237539368,0.0358673367604151,0
926,0.03703999999999996,5.000378781950543,0.030056401434036775,0.037413567081498456,0
927,0.03708,5.000049991798719,0.030713981113518377,0.03797359692671221,0
928,0.03712000000000004,5.000707572102282,0.030385191273714543,0.03754742672582878,0
929,0.03716000000000008,5.000049991798719,0.031042770953448276,0.03810779594734691,0
930,0.0371999999999999,5.000049991798719,0.03202914047399413,0.03899712533984652,0
931,0.03723999999999994,5.000378781950543,0.033015509995673945,0.039886625488580296,0
932,0.03727999999999998,5.000378781950543,0.03400187951848738,0.04077629681610028,0
933,0.03732000000000002,4.999392411494816,0.03433066935967702,0.04100856005981891,0
934,0.03736000000000006,5.000378781950543,0.034988249042434,0.04156978516071068,0
935,0.0374000000000001,5.000378781950543,0.03465945920099257,0.04114481316840273,0
936,0.03743999999999992,5.000049991798719,0.03400187951848738,0.040391224179028365,0
937,0.03747999999999996,5.000049991798719,0.034988249042434,0.04128175765070369,0
938,0.03752,4.99972120164681,0.03663219825152894,0.04283004447032376,0
939,0.03756000000000004,5.000049991798719,0.034988249042434,0.04109060694034311,0
940,0.03760000000000008,5.000049991798719,0.03959130683582415,0.0455983508848198,0
941,0.037639999999999896,5.000378781950543,0.037289777936047624,0.04320168300907176,0
942,0.037679999999999936,5.000378781950543,0.039920096679152195,0.04573703804769938,0
943,0.037719999999999976,5.000049991798719,0.03827614746376892,0.04399830079546557,0
944,0.037760000000000016,4.999392411494816,0.03663219825152894,0.04225973960770893,0
945,0.037800000000000056,4.99972120164681,0.03893372714954513,0.0444668329828219,0
946,0.037840000000000096,5.000378781950543,0.037947357621069405,0.04338620477290449,0
947,0.037879999999999914,5.000378781950543,0.03696098809372539,0.04230575379199342,0
948,0.037919999999999954,5.000049991798719,0.03827614746376892,0.04352700932031919,0
949,0.037959999999999994,5.000049991798719,0.037618567778495635,0.042775703786710265,0
950,0.038000000000000034,5.000378781950543,0.03827614746376892,0.04333973599611757,0
951,0.038040000000000074,5.000378781950543,0.03663219825152894,0.041602418057120186,0
952,0.038080000000000114,5.000378781950543,0.036303408409458296,0.04118043861158771,0
953,0.03811999999999993,5.000049991798719,0.03827614746376892,0.04306016755746381,0
954,0.03815999999999997,5.000378781950543,0.037618567778495635,0.04230975762805654,0
955,0.03820000000000001,5.000049991798719,0.03663219825152894,0.041230738088068056,0
956,0.03824000000000005,5.000378781950543,0.03696098809372539,0.0414670585127017,0
957,0.03828000000000009,5.000049991798719,0.037289777936047624,0.04170355989479896,0
958,0.03831999999999991,4.999063621342738,0.036303408409458296,0.04062508322473021,0
959,0.03835999999999995,5.000049991798719,0.037618567778495635,0.04184831712396736,0
960,0.03839999999999999,5.000049991798719,0.037947357621069405,0.04208536352487682,0
961,0.03844000000000003,5.000378781950543,0.037947357621069405,0.041993802463324945,0
962,0.03848000000000007,4.99972120164681,0.03827614746376892,0.04223121397407857,0
963,0.03852000000000011,5.000049991798719,0.037618567778495635,0.04148243903347293,0
964,0.03855999999999993,5.000049991798719,0.037947357621069405,0.041720217041846606,0
965,0.03859999999999997,5.000049991798719,0.03696098809372539,0.040643019443461846,0
966,0.03864000000000001,5.000049991798719,0.03597461856751347,0.0395660059489012,0
967,0.03868000000000005,4.99972120164681,0.037947357621069405,0.04144828547383594,0
968,0.03872000000000009,4.99972120164681,0.03597461856751347,0.03938527166592185,0
969,0.038759999999999906,5.000049991798719,0.037618567778495635,0.0409391312288418,0
970,0.038799999999999946,4.99972120164681,0.03663219825152894,0.039862857489636375,0
971,0.038839999999999986,5.000049991798719,0.037947357621069405,0.041088298409781156,0
972,0.038880000000000026,5.000049991798719,0.041564045897676996,0.044615454324345175,0
973,0.038920000000000066,5.000049991798719,0.04090646620989019,0.043868528683863005,0
974,0.038960000000000106,5.000378781950543,0.041564045897676996,0.04443694914778318,0
975,0.038999999999999924,4.999392411494816,0.04320799511934159,0.04599192619137235,0
976,0.039039999999999964,5.000378781950543,0.04320799511934159,0.045903141373530125,0
977,0.039080000000000004,5.000049991798719,0.045509524034943585,0.04811607314344214,0
978,0.039120000000000044,5.000049991798719,0.04682468341804723,0.04934282336240173,0
979,0.039160000000000084,5.000378781950543,0.04781105295669137,0.05024097202531379,0
980,0.0391999999999999,5.000378781950543,0.04912621234330475,0.05146809912894318,0
981,0.03923999999999994,4.99972120164681,0.050770161579389975,0.05302420497659655,0
982,0.03927999999999998,4.99972120164681,0.050770161579389975,0.052936550781986655,0
983,0.03932000000000002,4.99972120164681,0.052085320970511856,0.054164245469054004,0
984,0.03936000000000006,5.000049991798719,0.05274290066682373,0.05473455024606152,0
985,0.0394000000000001,5.000049991798719,0.05471563975876172,0.05662020449509944,0
986,0.03943999999999992,5.000378781950543,0.05603079915588792,0.05784846941484123,0
987,0.03947999999999996,4.999063621342738,0.05800353825532628,0.05973450468897741,0
988,0.03952,4.99972120164681,0.05931869765744993,0.06096315120190096,0
989,0.03956000000000004,4.99972120164681,0.06030506721035353,0.0618631990831779,0
990,0.03960000000000008,4.99972120164681,0.06030506721035353,0.06177706890804553,0
991,0.0396399999999999,4.99972120164681,0.060962646912913254,0.06234871020833574,0
992,0.03967999999999994,4.99972120164681,0.06392175558060653,0.06522207252043691,0
993,0.03971999999999998,5.000049991798719,0.06359296572814185,0.06480772863031621,0
994,0.03976000000000002,5.000049991798719,0.06392175558060653,0.06505115703176223,0
995,0.03980000000000006,5.000378781950543,0.06457933528590981,0.06562356813882642,0
996,0.0398400000000001,5.000378781950543,0.06523691499171154,0.06619617236275005,0
997,0.039879999999999916,4.99972120164681,0.06655207440480995,0.06742654967135041,0
998,0.039919999999999956,5.000378781950543,0.06556570484479929,0.06635559164267665,0
999,0.039959999999999996,4.99972120164681,0.06688086425839593,0.06758635647933454,0
1000,0.040000000000000036,4.999392411494816,0.06753844396594139,0.06815973575498788,0
1001,0.040040000000000076,5.000378781950543,0.06622328455134852,0.06676057030430316,0
1002,0.040080000000000116,4.999392411494816,0.06688086425839593,0.06733433861924265,0
1003,0.040119999999999933,4.99972120164681,0.06655207440480995,0.06692193226314501,0
1004,0.040159999999999973,4.99972120164681,0.0672096541121064,0.06749609060056562,0
1005,0.040200000000000014,5.000378781950543,0.06786723381990087,0.06807044431158564,0
1006,0.040240000000000054,5.000049991798719,0.06688086425839593,0.06700104436429784,0
1007,0.040280000000000094,5.000049991798719,0.0672096541121064,0.06724699967853062,0
1008,0.04031999999999991,4.99972120164681,0.06688086425839593,0.06683557136438342,0
1009,0.04035999999999995,5.000049991798719,0.06753844396594139,0.06741070892068993,0
1010,0.04039999999999999,5.000378781950543,0.06918239323698341,0.06897241257726747,0
1011,0.04044000000000003,5.000049991798719,0.06951118309156513,0.06921915357915485,0
1012,0.04048000000000007,4.99972120164681,0.07049755265605667,0.07012367127513591,0
1013,0.04052000000000011,5.000049991798719,0.07049755265605667,0.07004201661064005,0
1014,0.04055999999999993,5.000049991798719,0.07082634251113593,0.0702893492224848,0
1015,0.04059999999999997,4.99972120164681,0.07115513236633955,0.07053687947037701,0
1016,0.04064000000000001,5.000049991798719,0.07345666135624548,0.07275734670097045,0
1017,0.04068000000000005,5.000049991798719,0.07247029178839723,0.07169011343129758,0
1018,0.04072000000000009,5.000049991798719,0.07279908164422239,0.07193823784968752,0
1019,0.04075999999999991,5.000378781950543,0.07247029178839723,0.07152898102512972,0
1020,0.04079999999999995,5.000049991798719,0.0737854512124434,0.07276387215086999,0
1021,0.04083999999999999,5.000378781950543,0.0757581903522391,0.074656541861921,0
1022,0.04088000000000003,4.99972120164681,0.0760869802093063,0.07490546135634896,0
1023,0.04092000000000007,4.99972120164681,0.07740213963881623,0.07614094968327857,0
1024,0.04096000000000011,5.000049991798719,0.07805971935431567,0.0767190577476187,0
1025,0.040999999999999925,5.000378781950543,0.07904608892849513,0.07762615531082981,0
1026,0.041039999999999965,5.000049991798719,0.08069003822127407,0.07919103241900882,0
1027,0.041080000000000005,5.000049991798719,0.0813476179392533,0.07976973996234094,0
1028,0.041120000000000045,5.000707572102282,0.08233398751715135,0.08067743755653571,0
1029,0.041160000000000085,4.99972120164681,0.08595067597897872,0.08421565440400076,0
1030,0.0411999999999999,5.000049991798719,0.08595067597897872,0.08413738333478235,0
1031,0.04123999999999994,5.000049991798719,0.08759462528475882,0.08570326228969634,0
1032,0.04127999999999998,4.99972120164681,0.08595067597897872,0.08398144352201596,0
1033,0.04132000000000002,4.99972120164681,0.08463551653658133,0.08258861567470269,0
1034,0.04136000000000006,5.000378781950543,0.08430672667629135,0.08218235863190443,0
1035,0.0414000000000001,5.000049991798719,0.08397793681612514,0.08177630297446534,0
1036,0.04143999999999992,4.99972120164681,0.08430672667629135,0.08202802858282626,0
1037,0.04147999999999996,5.000049991798719,0.08496430639699507,0.08260874575482871,0
1038,0.04152,5.000378781950543,0.08595067597897872,0.08351845464625574,0
1039,0.04156000000000004,5.000049991798719,0.08693704556207577,0.0844283655493854,0
1040,0.04160000000000008,5.000049991798719,0.08660825570091973,0.0840233191686999,0
1041,0.0416399999999999,5.000049991798719,0.08660825570091973,0.08394726495686128,0
1042,0.04167999999999994,5.000049991798719,0.08693704556207577,0.08420020305852688,0
1043,0.04171999999999998,5.000049991798719,0.08595067597897872,0.08313818431034964,0
1044,0.04176000000000002,5.000378781950543,0.08562188611819377,0.08273394801836184,0
1045,0.04180000000000006,4.99972120164681,0.08627946583988738,0.08331628417960239,0
1046,0.0418400000000001,5.000049991798719,0.08496430639699507,0.08192608418128493,0
1047,0.04187999999999992,5.000049991798719,0.08529309625753255,0.0821800366231093,0
1048,0.04191999999999996,5.000049991798719,0.08496430639699507,0.08177661260966113,0
1049,0.04196,5.000049991798719,0.08463551653658133,0.0813733919886363,0
1050,0.04200000000000004,4.99972120164681,0.08595067597897872,0.0826143241866266,0
1051,0.04204000000000008,5.000378781950543,0.08595067597897872,0.08254030057973577,0
1052,0.042079999999999895,4.99972120164681,0.08627946583988738,0.08279527058999055,0
1053,0.042119999999999935,5.000049991798719,0.08627946583988738,0.08272165461170343,0
1054,0.042159999999999975,4.99972120164681,0.08627946583988738,0.0826482426193227,0
1055,0.042200000000000015,5.000378781950543,0.08529309625753255,0.08158866514144354,0
1056,0.042240000000000055,5.000378781950543,0.08266277737669843,0.07888534257030266,0
1057,0.042280000000000095,4.99972120164681,0.08266277737669843,0.07881254319098653,0
1058,0.04231999999999991,4.99972120164681,0.08200519765772811,0.07808236850687646,0
1059,0.04235999999999995,5.000049991798719,0.08003245850379062,0.07603723890257497,0
1060,0.04239999999999999,5.000049991798719,0.07838850921225148,0.07432110377346166,0
1061,0.04244000000000003,5.000378781950543,0.07838850921225148,0.07424912264410694,0
1062,0.04248000000000007,4.99972120164681,0.0760869802093063,0.07187581731287276,0
1063,0.04252000000000011,4.99972120164681,0.07247029178839723,0.0681875574550043,0
1064,0.04255999999999993,4.999392411494816,0.07115513236633955,0.06680103157499949,0
1065,0.04259999999999997,4.999392411494816,0.07016876280110178,0.06574350061592925,0
1066,0.04264000000000001,4.999392411494816,0.06983997294627126,0.06534375451390419,0
1067,0.04268000000000005,5.000378781950543,0.06918239323698341,0.06461542378400513,0
1068,0.04272000000000009,4.99972120164681,0.06852481352819326,0.06388729835855589,0
1069,0.04275999999999991,5.000049991798719,0.06951118309156513,0.06480332758401422,0
1070,0.04279999999999995,5.000378781950543,0.07049755265605667,0.0657195622615571,0
1071,0.04283999999999999,4.999392411494816,0.06983997294627126,0.06499205318543433,0
1072,0.04288000000000003,4.999392411494816,0.0714839222216675,0.06656627868217958,0
1073,0.04292000000000007,5.000049991798719,0.07345666135624548,0.06846949969029821,0
1074,0.04296000000000011,4.99972120164681,0.0737854512124434,0.06872897713416541,0
1075,0.04299999999999993,5.000378781950543,0.0760869802093063,0.0709613994921965,0
1076,0.04303999999999997,5.000049991798719,0.0787172990703113,0.07352281754467374,0
1077,0.04308000000000001,5.000049991798719,0.08069003822127407,0.07542686177165442,0
1078,0.04312000000000005,5.000049991798719,0.08101882808020172,0.07568716264282545,0
1079,0.04316000000000009,5.000049991798719,0.07838850921225148,0.0729885607724636,0
1080,0.043199999999999905,4.99972120164681,0.08069003822127407,0.07522201281098068,0
1081,0.043239999999999945,5.000378781950543,0.08200519765772811,0.07646930135283954,0
1082,0.043279999999999985,4.99972120164681,0.08069003822127407,0.07508647713915016,0
1083,0.043320000000000025,4.99972120164681,0.08233398751715135,0.07666296781404845,0
1084,0.043360000000000065,5.000049991798719,0.08101882808020172,0.07528055594872185,0
1085,0.043400000000000105,5.000378781950543,0.08200519765772811,0.07619987932426983,0
1086,0.04343999999999992,5.000378781950543,0.08069003822127407,0.07481787994348543,0
1087,0.04347999999999996,4.999392411494816,0.08069003822127407,0.07475124628550746,0
1088,0.04352,5.000378781950543,0.08036124836247038,0.07435602908123966,0
1089,0.04356000000000004,4.999392411494816,0.07937487878680298,0.07330343849624274,0
1090,0.04360000000000008,5.000378781950543,0.07904608892849513,0.07290863398582216,0
1091,0.0436399999999999,4.99972120164681,0.08003245850379062,0.07382919528476753,0
1092,0.04367999999999994,5.000049991798719,0.0787172990703113,0.07244843396671252,0
1093,0.04371999999999998,5.000049991798719,0.0770733497812526,0.07073908919833263,0
1094,0.04376000000000002,4.999392411494816,0.07773092949650393,0.07133147985046788,0
1095,0.04380000000000006,5.000378781950543,0.07805971935431567,0.07159528706979246,0
1096,0.0438400000000001,5.000378781950543,0.0787172990703113,0.07218809057782923,0
1097,0.04387999999999992,4.99972120164681,0.0787172990703113,0.07212352080377613,0
1098,0.04391999999999996,4.99972120164681,0.07674455992381307,0.07008641831798872,0
1099,0.04396,4.999392411494816,0.07641577006649763,0.06969347155448949,0
1100,0.04400000000000004,5.000049991798719,0.07279908164422239,0.06601283265496312,0
1101,0.04404000000000008,4.999392411494816,0.07247029178839723,0.06562029874413529,0
1102,0.0440799999999999,5.000049991798719,0.07345666135624548,0.06654313067003627,0
1103,0.04411999999999994,5.000378781950543,0.0714839222216675,0.06450706029486739,0
1104,0.04415999999999998,4.999392411494816,0.07247029178839723,0.06543030500816024,0
1105,0.04420000000000002,5.000049991798719,0.07247029178839723,0.06536738652517451,0
1106,0.04424000000000006,5.000049991798719,0.0714839222216675,0.06431830482670968,0
1107,0.0442800000000001,4.99972120164681,0.07444303092521187,0.0672149077280741,0
1108,0.044319999999999915,5.000378781950543,0.07477182078178243,0.06748139808783234,0
1109,0.044359999999999955,4.99972120164681,0.07477182078178243,0.06741930486971093,0
1110,0.044399999999999995,5.000707572102282,0.07641577006649763,0.06900136718583277,0
1111,0.044440000000000035,5.000049991798719,0.07444303092521187,0.06696694729383572,0
1112,0.044480000000000075,5.000707572102282,0.07838850921225148,0.07085095101392022,0
1113,0.044520000000000115,4.999392411494816,0.07838850921225148,0.07078968259411873,0
1114,0.04455999999999993,5.000707572102282,0.08036124836247038,0.0727013594326139,0
1115,0.04459999999999997,5.000049991798719,0.08397793681612514,0.07625719164107674,0
1116,0.04464000000000001,4.99972120164681,0.0813476179392533,0.07356622254153203,0
1117,0.04468000000000005,4.997748460733576,0.08792341514628582,0.0800815755019343,0
1118,0.04472000000000009,5.000049991798719,0.08529309625753255,0.07739101829365655,0
1119,0.04475999999999991,5.000049991798719,0.08890978473160849,0.08094767432391997,0
1120,0.04479999999999995,4.998406041038327,0.09186889349424851,0.08384695646461214,0
1121,0.04483999999999999,5.000049991798719,0.09154010363123893,0.08345854574522227,0
1122,0.04488000000000003,4.998406041038327,0.09088252390559022,0.08274155087001721,0
1123,0.04492000000000007,5.003009103162085,0.10173258944188096,0.09353240690238912,0
1124,0.04496000000000011,5.001036362253937,0.10206137930871124,0.0938021928473125,0
1125,0.04499999999999993,5.000707572102282,0.10469169824778124,0.09637371338042636,0
1126,0.04503999999999997,5.000378781950543,0.10600685772026662,0.09763027989441339,0
1127,0.04508000000000001,4.99972120164681,0.11192507537076382,0.10349010996294888,0
1128,0.04512000000000005,5.000707572102282,0.11488418421091426,0.10639103652432864,0
1129,0.04516000000000009,4.999392411494816,0.1168569234431935,0.1083057987052618,0
1130,0.04519999999999991,5.000378781950543,0.12113119179491064,0.11252229515487416,0
1131,0.04523999999999995,4.99972120164681,0.12178877154316266,0.11312230806966682,0
1132,0.04527999999999999,5.000049991798719,0.12474788041634353,0.11602405509502928,0
1133,0.04532000000000003,4.99972120164681,0.12409030066589298,0.11530931839699216,0
1134,0.04536000000000007,5.000049991798719,0.12409030066589298,0.11525236626182778,0
1135,0.04540000000000011,4.99972120164681,0.12409030066589298,0.11519561884887937,0
1136,0.045439999999999925,5.000049991798719,0.12244635129190345,0.11349512669155855,0
1137,0.045479999999999965,4.99972120164681,0.12178877154316266,0.11278120869411626,0
1138,0.045520000000000005,5.000049991798719,0.11948724242641957,0.11042354576592983,0
1139,0.045560000000000045,4.99972120164681,0.1158705538265029,0.10675092769207623,0
1140,0.045600000000000085,5.000378781950543,0.1158705538265029,0.10669520245351827,0
1141,0.0456399999999999,4.99972120164681,0.11192507537076382,0.10269420289010142,0
1142,0.04567999999999994,5.000049991798719,0.11028112601941528,0.10099493645508946,0
1143,0.04571999999999998,5.000049991798719,0.10699322732592072,0.09765192459271739,0
1144,0.04576000000000002,4.99972120164681,0.10469169824778124,0.09529548614889954,0
1145,0.04580000000000006,5.000049991798719,0.10140379957517373,0.09195288179987234,0
1146,0.0458400000000001,5.000049991798719,0.09778711104951865,0.08828169117076652,0
1147,0.04587999999999992,5.000049991798719,0.095485581995499,0.08592586346763058,0
1148,0.04591999999999996,5.000049991798719,0.09351284281114798,0.08389902896752265,0
1149,0.04596,4.99972120164681,0.08923857459362991,0.07957086864429615,0
1150,0.04600000000000004,5.000049991798719,0.08858099486971066,0.0788595998990748,0
1151,0.04604000000000008,5.000049991798719,0.08693704556207577,0.07716216452657551,0
1152,0.0460799999999999,5.000707572102282,0.08627946583988738,0.07645130156566991,0
1153,0.04611999999999994,4.99972120164681,0.08627946583988738,0.07639822102049229,0
1154,0.04615999999999998,5.000378781950543,0.08923857459362991,0.07930445178767676,0
1155,0.04620000000000002,5.000378781950543,0.09318405294752126,0.08319725457640213,0
1156,0.04624000000000006,5.000378781950543,0.09811590091487153,0.08807662926044847,0
1157,0.0462800000000001,5.000378781950543,0.10502048811571825,0.0949289453180254,0
1158,0.04631999999999992,5.000049991798719,0.11554176395451755,0.10539815200946837,0
1159,0.04635999999999996,5.000378781950543,0.1270494095467647,0.11685393030386401,0
1160,0.0464,4.99972120164681,0.140201004692246,0.12995385985230726,0
1161,0.04644000000000004,5.000049991798719,0.15795565844661247,0.14765704955947992,0
1162,0.04648000000000008,5.000378781950543,0.1773542620248027,0.16700439048707877,0
1163,0.046519999999999895,5.000049991798719,0.1983968155303359,0.1879958825831134,0
1164,0.046559999999999935,5.000378781950543,0.22437121818515854,0.2139194249117582,0
1165,0.046599999999999975,4.99972120164681,0.24903046189250247,0.2385280092162158,0
1166,0.046640000000000015,5.000707572102282,0.2769776055546842,0.26642469423652193,0
1167,0.046680000000000055,4.99972120164681,0.3019656405954552,0.2913624712319018,0
1168,0.046720000000000095,5.000049991798719,0.330899155679342,0.3202459287001159,0
1169,0.04675999999999991,5.000378781950543,0.36213420135690155,0.3514311170227209,0
1170,0.04679999999999995,5.000707572102282,0.3900813483465501,0.37932860674690394,0
1171,0.04683999999999999,5.000049991798719,0.41934365605236584,0.4085414571032907,0
1172,0.04688000000000003,5.000049991798719,0.450249914571464,0.4393984580133264,0
1173,0.04692000000000007,5.000707572102282,0.4798410140500756,0.4689404994453597,0
1174,0.04696000000000011,4.99972120164681,0.510418484421693,0.49946911115279397,0
1175,0.04699999999999993,5.000378781950543,0.5393520056153215,0.5283539728823436,0
1176,0.04703999999999997,5.000707572102282,0.5715734278963404,0.5605269347149007,0
1177,0.04708000000000001,4.99972120164681,0.6014933209013771,0.590398566100415,0
1178,0.04712000000000005,4.99972120164681,0.6330571649854112,0.6219143472050058,0
1179,0.04716000000000009,5.000378781950543,0.6642922199387182,0.6531015376279112,0
1180,0.04719999999999991,5.000049991798719,0.6994727565888702,0.6882344080034943,0
1181,0.04723999999999995,5.000378781950543,0.7336669241244772,0.7223811073249913,0
1182,0.04727999999999999,5.000378781950543,0.7704914134032977,0.7591583262526272,0
1183,0.04732000000000003,5.000378781950543,0.807644693968373,0.7962645341297551,0
1184,0.04736000000000007,5.000049991798719,0.847099506488891,0.8356724714237254,0
1185,0.04740000000000011,4.99972120164681,0.8898422215375726,0.8783685085032772,0
1186,0.04743999999999993,5.000049991798719,0.9332425183670563,0.9217223244149284,0
1187,0.04747999999999997,5.000378781950543,0.976642816725731,0.9650763386988137,0
1188,0.04752000000000001,5.000707572102282,1.0223446476756621,1.0107320822066184,0
1189,0.04756000000000005,4.999392411494816,1.0677176900801388,1.0560592335891301,0
1190,0.04760000000000009,5.000049991798719,1.1121043635099523,1.100400212202525,0
1191,0.047639999999999905,5.000049991798719,1.1564910384009641,1.1447413882659392,0
1192,0.047679999999999945,5.000049991798719,1.197261022521861,1.1854660693292314,0
1193,0.047719999999999985,5.000378781950543,1.2360582665691795,1.2242182058680084,0
1194,0.047760000000000025,5.000049991798719,1.2686084975501408,1.2567235246664665,0
1195,0.047800000000000065,5.000378781950543,1.2952405052530696,1.2833108152878125,0
1196,0.047840000000000105,5.000049991798719,1.3166118698030436,1.3046376576299186,0
1197,0.04787999999999992,5.000049991798719,1.3287771082205013,1.316758568483937,0
1198,0.04791999999999996,5.000049991798719,1.3327225909713911,1.3206599180844534,1
1199,0.04796,5.000049991798719,1.3271331570773128,1.315026545219635,0
1200,0.04800000000000004,5.000707572102282,1.3100360652937757,1.2978857084094932,0
1201,0.04804000000000008,4.999063621342738,1.2866919595185218,1.2744980513142152,0
1202,0.0480799999999999,5.000049991798719,1.2551280987728477,1.2428908327154906,0
1203,0.04811999999999994,5.000049991798719,1.2173172248214443,1.2050367941363564,0
1204,0.04815999999999998,5.000378781950543,1.1749032891467972,1.1625798868156034,0
1205,0.04820000000000002,5.000049991798719,1.12887266274334,1.1165064815019388,0
1206,0.04824000000000006,5.000049991798719,1.0825132477256028,1.0701044800621362,0
1207,0.0482800000000001,5.000378781950543,1.0371402048075147,1.0246890429603486,0
1208,0.04831999999999992,4.99972120164681,0.9930823240724557,0.9805889600281616,0
1209,0.04835999999999996,5.000378781950543,0.9519835561089497,0.9394481816002943,0
1210,0.0484,5.000049991798719,0.911871159886711,0.8992939663906503,0
1211,0.04844000000000004,5.000378781950543,0.8737315056859051,0.8611126844215877,0
1212,0.04848000000000008,5.000707572102282,0.8421676548513403,0.8295073967781152,0
1213,0.0485199999999999,4.999392411494816,0.8132341256611689,0.8005326214766002,0
1214,0.04855999999999994,5.000707572102282,0.7872597080231414,0.7745171481610275,0
1215,0.04859999999999998,5.000378781950543,0.7668747224390793,0.7540912970674787,0
1216,0.04864000000000002,5.000378781950543,0.7481336876268528,0.7353095866461148,0
1217,0.04868000000000006,5.000049991798719,0.7339957142020123,0.7211311272428134,0
1218,0.0487200000000001,5.000049991798719,0.7218304813974152,0.7089255978188029,0
1219,0.048759999999999915,4.99972120164681,0.7099940387957185,0.6970490476831613,0
1220,0.048799999999999955,5.000049991798719,0.6991439665215156,0.6861590566849582,0
1221,0.048839999999999995,5.000049991798719,0.6889514744820471,0.675926834453973,0
1222,0.048880000000000035,4.99972120164681,0.676786242171322,0.6637220602048219,0
1223,0.048920000000000075,4.99972120164681,0.6629770597120246,0.6498735237788718,0
1224,0.048960000000000115,5.000378781950543,0.6475239271675403,0.6343812249562726,0
1225,0.04899999999999993,5.000378781950543,0.6294404744702333,0.6162587933842418,0
1226,0.04903999999999997,5.000378781950543,0.6106994419961532,0.5974789691517772,0
1227,0.04908000000000001,4.99972120164681,0.5896568796111676,0.5763978018357963,0
1228,0.04912000000000005,5.000378781950543,0.568943107672839,0.5556456115030195,0
1229,0.04916000000000009,4.99972120164681,0.5479005461232418,0.5345648178027957,0
1230,0.04919999999999991,5.000049991798719,0.5262004049718968,0.5128266304500422,0
1231,0.04923999999999995,5.000049991798719,0.5081169543617657,0.4947053192912461,0
1232,0.04927999999999999,5.000707572102282,0.4916774540847624,0.47822814381998274,0
1233,0.04932000000000003,4.999063621342738,0.47753948405941393,0.4640526836545829,0
1234,0.04936000000000007,5.000049991798719,0.46899094414008136,0.4554668383473606,0
1235,0.04940000000000011,4.99972120164681,0.46274393424495536,0.44918270751261635,0
1236,0.04943999999999993,5.000049991798719,0.45978482430819984,0.4461866607787862,0
1237,0.04947999999999997,4.99972120164681,0.4594560343157661,0.4458211178242639,0
1238,0.04952000000000001,5.000378781950543,0.4620863542582553,0.44841486833026967,0
1239,0.04956000000000005,4.99972120164681,0.4676757841589331,0.4539679120088721,0
1240,0.04960000000000009,4.99972120164681,0.47392279408469284,0.4601787186139585,0
1241,0.049639999999999906,5.000049991798719,0.4788546440534355,0.46507454784862173,0
1242,0.049679999999999946,4.99972120164681,0.48411528404663917,0.470299349377737,0
1243,0.049719999999999986,5.000378781950543,0.4890471340651037,0.4751955428837127,0
1244,0.049760000000000026,4.99972120164681,0.492663824093892,0.4787767580314397,0
1245,0.049800000000000066,5.000049991798719,0.49562293412702774,0.4817005744929963,0
1246,0.049840000000000106,5.000049991798719,0.49595172413124133,0.48199425191140116,0
1247,0.049879999999999924,5.000049991798719,0.49792446415875496,0.48393206001340516,0
1248,0.049919999999999964,5.000378781950543,0.49923962417922224,0.48521246844143795,0
1249,0.049960000000000004,5.000049991798719,0.5021987342314833,0.4881370069053702,0
1250,0.050000000000000044,5.000049991798719,0.5068017943298488,0.492705675088805,0
1251,0.050040000000000084,5.000378781950543,0.5120624344676695,0.4979321026526542,0
1252,0.0500799999999999,4.99972120164681,0.5163367045995629,0.5021723392173723,0
1253,0.05011999999999994,5.000378781950543,0.5225837148243787,0.5083854945459283,0
1254,0.05015999999999998,5.000049991798719,0.5271867750143355,0.5129548781729522,0
1255,0.05020000000000002,4.99972120164681,0.5314610452091506,0.5171956497988706,0
1256,0.05024000000000006,5.000049991798719,0.5327762052726586,0.5184774889465353,0
1257,0.0502800000000001,4.99972120164681,0.5331049952887975,0.5187731353572155,0
1258,0.05031999999999992,4.99972120164681,0.5317898352248703,0.517425008653867,0
1259,0.05035999999999996,4.99972120164681,0.5285019350723902,0.5141043184819848,0
1260,0.0504,5.000378781950543,0.5225837148243787,0.5081534844869091,0
1261,0.05044000000000004,5.000378781950543,0.5183094446664493,0.5038467765049164,0
1262,0.05048000000000008,5.000049991798719,0.5110760644397666,0.49658113402618476,0
1263,0.0505199999999999,5.000378781950543,0.5048290542851495,0.49030203683890494,0
1264,0.05055999999999994,5.000049991798719,0.49792446415875496,0.4833655345449715,0
1265,0.05059999999999998,4.99972120164681,0.4903622940740806,0.4757716268019915,0
1266,0.05064000000000002,5.000378781950543,0.48280012404577244,0.46817789326710024,0
1267,0.05068000000000006,5.000049991798719,0.4749091640765124,0.4602555435838569,0
1268,0.0507200000000001,4.99972120164681,0.46537425419606354,0.45068941742129726,0
1269,0.050759999999999916,5.000378781950543,0.45682571438018016,0.4421098343928518,0
1270,0.050799999999999956,5.000049991798719,0.4489347546149134,0.4341880041206582,0
1271,0.050839999999999996,5.000049991798719,0.4426877448449788,0.42791029618393683,0
1272,0.050880000000000036,4.99972120164681,0.43479678519162435,0.41998881033686664,0
1273,0.050920000000000076,5.000049991798719,0.42624824563795427,0.41140991619391676,0
1274,0.050960000000000116,5.000378781950543,0.41868607609435154,0.4038175632952774,0
1275,0.050999999999999934,5.000378781950543,0.41178148656168984,0.3968829612700798,0
1276,0.051039999999999974,5.000049991798719,0.4032329472074535,0.38830457991252243,0
1277,0.051080000000000014,5.000378781950543,0.3983010976138952,0.38334305843003713,0
1278,0.051120000000000054,5.000378781950543,0.39041013831591576,0.3754225969811761,0
1279,0.051160000000000094,4.99972120164681,0.38679344865899107,0.37177657453354573,0
1280,0.05119999999999991,4.999392411494816,0.3775873295928934,0.3625412916575361,0
1281,0.05123999999999995,5.000378781950543,0.37232669016572273,0.35725165702036027,0
1282,0.05127999999999999,4.999392411494816,0.3647645210392139,0.34966066090136894,0
1283,0.05132000000000003,5.000378781950543,0.35687356201378634,0.34174104271710914,0
1284,0.05136000000000007,4.99972120164681,0.35062655283115324,0.3354655418239409,0
1285,0.05140000000000011,5.000378781950543,0.3447083336429552,0.3295189979866797,0
1286,0.05143999999999993,5.000049991798719,0.34010527429960447,0.324887780667448,0
1287,0.05147999999999997,4.99972120164681,0.330899155679342,0.31565367035474134,0
1288,0.05152000000000001,5.000049991798719,0.32662488635011494,0.31135157522531376,0
1289,0.05156000000000005,4.99972120164681,0.32136424720201656,0.3060632757766259,0
1290,0.05160000000000009,4.999392411494816,0.31478844830784003,0.29945998168740695,0
1291,0.05163999999999991,5.000378781950543,0.310185389109042,0.29482959200362735,0
1292,0.05167999999999995,5.000378781950543,0.30295201041330994,0.28756904713607406,0
1293,0.05171999999999999,4.999392411494816,0.2976913713966689,0.28228140586246553,0
1294,0.05176000000000003,5.000378781950543,0.2921019424736697,0.27666513819764743,0
1295,0.05180000000000007,5.000049991798719,0.28519735384996026,0.2697338739461717,0
1296,0.05184000000000011,5.000049991798719,0.2799367149326714,0.26444672211269055,0
1297,0.051879999999999926,5.000049991798719,0.2746760760449453,0.2591597326164929,0
1298,0.051919999999999966,5.000378781950543,0.2690866472591922,0.2535441151247697,0
1299,0.051960000000000006,5.000049991798719,0.26481237821033843,0.2492438188658705,0
1300,0.052000000000000046,5.000049991798719,0.26020931925659757,0.2446148937900825,0
1301,0.052040000000000086,5.000378781950543,0.2559350502485366,0.2403149193387044,0
1302,0.052079999999999904,4.999392411494816,0.25067441149641523,0.2350287354113948,0
1303,0.052119999999999944,4.99972120164681,0.24607135261281843,0.23040029120881217,0
1304,0.052159999999999984,4.999392411494816,0.24245466350606643,0.22675837622603384,0
1305,0.052200000000000024,4.999392411494816,0.23850918449667496,0.2227878303690241,0
1306,0.052240000000000064,4.99972120164681,0.23390612567372374,0.21815986331101167,0
1307,0.052280000000000104,5.000049991798719,0.22831669713394426,0.21254568473158636,0
1308,0.05231999999999992,5.000049991798719,0.2247000080969096,0.20890440343189665,0
1309,0.05235999999999996,5.000049991798719,0.22009694934312324,0.20427690977274737,0
1310,0.0524,5.000049991798719,0.21648026033851664,0.2006359427991053,0
1311,0.05244000000000004,5.000049991798719,0.21121962181189158,0.19535118281755076,0
1312,0.05248000000000008,4.99972120164681,0.20760293284241504,0.1917105284837809,0
1313,0.0525199999999999,5.000049991798719,0.20234229436696954,0.18642608030996904,0
1314,0.05255999999999994,5.000378781950543,0.1960952862168741,0.1801554177014948,0
1315,0.05259999999999998,5.000049991798719,0.19149222760745366,0.17552885944652225,0
1316,0.05264000000000002,5.000378781950543,0.18886190841256045,0.17287519499052983,0
1317,0.05268000000000006,5.000049991798719,0.18327248014878164,0.16726257542052697,0
1318,0.0527200000000001,5.000378781950543,0.17965579129062992,0.16362284878025368,0
1319,0.05275999999999992,4.99972120164681,0.1780118418144401,0.16195601461408599,0
1320,0.05279999999999996,4.998734831190575,0.17209362372496856,0.1560150644936436,0
1321,0.05284,5.000707572102282,0.1694633045865731,0.15336216554897913,0
1322,0.05288000000000004,4.99972120164681,0.1619011371065503,0.14577757005192327,0
1323,0.05292000000000008,4.999392411494816,0.1563117090100981,0.14016586529105585,0
1324,0.052959999999999896,4.999063621342738,0.15598291912315737,0.13981494965455654,0
1325,0.052999999999999936,5.001036362253937,0.14907833152531352,0.13288838678311554,0
1326,0.053039999999999976,4.999392411494816,0.14644801245445316,0.13023624247459936,0
1327,0.053080000000000016,5.001036362253937,0.1382282654080184,0.12199481978531385,0
1328,0.053120000000000056,5.000707572102282,0.13789947552773896,0.12164450341474559,0
1329,0.053160000000000096,4.998406041038327,0.13198125770349964,0.11570490780943882,0
1330,0.053199999999999914,4.998734831190575,0.1257342500429348,0.10943667063259849,0
1331,0.053239999999999954,4.998734831190575,0.12178877154316266,0.1054701104358336,0
1332,0.053279999999999994,4.998734831190575,0.11455539433929632,0.09821579890767651,0
1333,0.053320000000000034,5.000378781950543,0.11554176395451755,0.09918138112366587,0
1334,0.053360000000000074,5.000378781950543,0.10995233614951355,0.09357131239579092,0
1335,0.053400000000000114,5.000707572102282,0.10271895904274086,0.08631744039276407,0
1336,0.05343999999999993,5.001365152405508,0.10008864010957542,0.08366677213918056,0
1337,0.05347999999999997,4.999392411494816,0.09515679213113215,0.07871471996434592,0
1338,0.05352000000000001,4.99972120164681,0.09088252390559022,0.07442039221361024,0
1339,0.05356000000000005,5.000049991798719,0.08726583542335548,0.07078378842353977,0
1340,0.05360000000000009,4.99972120164681,0.08397793681612514,0.06747611827099015,0
1341,0.05363999999999991,4.99972120164681,0.07904608892849513,0.06252464214472309,0
1342,0.05367999999999995,5.000378781950543,0.0757581903522391,0.05921725817969442,0
1343,0.05371999999999999,5.000378781950543,0.07214150193269635,0.05558122676345145,0
1344,0.05376000000000003,5.000049991798719,0.06885360338252611,0.0522741271498961,0
1345,0.05380000000000007,4.99972120164681,0.06392175558060653,0.04732321975819259,0
1346,0.05384000000000011,4.99972120164681,0.060962646912913254,0.04434519251365471,0
1347,0.05387999999999993,4.999063621342738,0.05537321945707481,0.03873698703230988,0
1348,0.05391999999999997,5.000378781950543,0.05175653112254362,0.03510166076108051,0
1349,0.05396000000000001,4.99972120164681,0.04715347326413659,0.030480104591333212,0
1350,0.05400000000000005,5.000049991798719,0.04452315449893275,0.02783142667578581,0
1351,0.05404000000000009,4.999392411494816,0.041564045897676996,0.02485409761991969,0
1352,0.054079999999999906,4.998734831190575,0.037947357621069405,0.02121932711827762,0
1353,0.054119999999999946,4.99972120164681,0.03400187951848738,0.017255904553195645,0
1354,0.054159999999999986,5.000049991798719,0.029070031915759978,0.012306249782586542,0
1355,0.054200000000000026,5.000049991798719,0.026110923367741706,0.009329470892522396,0
1356,0.054240000000000066,5.000707572102282,0.021507865646709548,0.0047088791856421675,0
1357,0.054280000000000106,5.000049991798719,0.02019270630239349,0.0033763217411914015,0
1358,0.054319999999999924,4.999392411494816,0.01821996728971463,0.0013863200427700617,0
1359,0.054359999999999964,5.000049991798719,0.014932068945377922,-0.0019187060450663873,0
1360,0.054400000000000004,5.000049991798719,0.012630540111881347,-0.004237228152788708,0
1361,0.054440000000000044,4.999392411494816,0.008027482463535476,-0.00885714507986568,0
1362,0.054480000000000084,5.000049991798719,0.00506837398845672,-0.011832979312761949,0
1363,0.0545199999999999,5.000378781950543,0.001780475694892425,-0.015137470318602297,0
1364,0.05455999999999994,5.000049991798719,-0.0015074225859438989,-0.018441828742327138,0
1365,0.05459999999999998,4.99972120164681,-0.005781690331979852,-0.022732424538789597,0
1366,0.05464000000000002,4.99972120164681,-0.00808321910937683,-0.025050149751838502,0
1367,0.05468000000000006,4.99972120164681,-0.0113711173519455,-0.02835411329372356,0
1368,0.0547200000000001,5.000049991798719,-0.013672646114138112,-0.030671576698077074,0
1369,0.05475999999999992,4.99972120164681,-0.01696054433496612,-0.03397527938382272,0
1370,0.05479999999999996,4.99972120164681,-0.021892391642189743,-0.038922801459355894,0
1371,0.05484,5.000707572102282,-0.024522710194243194,-0.04156866556445998,0
1372,0.05488000000000004,5.000378781950543,-0.029454557457189598,-0.04651592964725221,0
1373,0.05492000000000008,5.000378781950543,-0.03471519450577058,-0.05179185526522384,0
1374,0.0549599999999999,5.000049991798719,-0.03767430283110791,-0.05476612439293288,0
1375,0.05499999999999994,5.000707572102282,-0.04030462133375036,-0.057411476415040574,0
1376,0.05503999999999998,5.000378781950543,-0.04523646850393555,-0.06235823030656462,0
1377,0.05508000000000002,5.000049991798719,-0.046551627744407784,-0.06368816995568738,0
1378,0.05512000000000006,4.99972120164681,-0.04951073602790314,-0.06666193282123123,0
1379,0.0551600000000001,4.99972120164681,-0.05049710545340523,-0.06766283148890545,0
1380,0.055199999999999916,5.000049991798719,-0.05378500352999273,-0.07096513395514442,0
1381,0.055239999999999956,5.000049991798719,-0.05674411178783788,-0.07393852223809627,0
1382,0.055279999999999996,5.000049991798719,-0.05838806081543309,-0.07559662741484052,0
1383,0.055320000000000036,4.99972120164681,-0.06134716905692379,-0.07856976841871088,0
1384,0.055360000000000076,4.99972120164681,-0.06430627728788789,-0.0815427865150648,0
1385,0.055400000000000116,5.000378781950543,-0.06595022630053791,-0.08320052298647601,0
1386,0.055439999999999934,5.000049991798719,-0.06923812431607472,-0.0865020865450793,0
1387,0.055479999999999974,5.000049991798719,-0.07186844271912378,-0.08914594906699713,0
1388,0.055520000000000014,5.000049991798719,-0.07384118151593398,-0.09113211105052904,0
1389,0.055560000000000054,4.99972120164681,-0.07680028970234042,-0.09410452198410385,0
1390,0.055600000000000094,4.999392411494816,-0.07844423869021762,-0.09576165377272272,0
1391,0.05563999999999991,5.000049991798719,-0.08173213665616903,-0.09906261508663983,0
1392,0.05567999999999995,5.000049991798719,-0.08469124481434036,-0.10203466763416685,0
1393,0.05571999999999999,4.99972120164681,-0.08534882440360501,-0.10270507314884891,0
1394,0.05576000000000003,5.000378781950543,-0.08765035296190492,-0.10501930966379613,0
1395,0.05580000000000007,5.000378781950543,-0.09028067130638286,-0.10766221849180624,0
1396,0.05584000000000011,5.000378781950543,-0.09192462026741856,-0.10931864095939231,0
1397,0.05587999999999993,4.99972120164681,-0.09356856922517286,-0.11097494694331711,0
1398,0.05591999999999997,4.999392411494816,-0.09685646713083039,-0.11427508589182589,0
1399,0.05596000000000001,5.000049991798719,-0.09948678544589158,-0.11691752976392816,0
1400,0.05600000000000005,5.000378781950543,-0.10145952417666172,-0.11890227906387812,0
1401,0.05604000000000009,4.99972120164681,-0.10178831396466272,-0.11924296493157521,0
1402,0.05607999999999991,5.000049991798719,-0.10408984247698179,-0.12155627553290299,0
