,seconds,Trig,EMG_amplitude,EMG_amplitude_filter,peaks
0,0.0,5.000049991798719,-0.10178831396466272,-0.03478482406822386,0
1,4.0000000000040004e-05,5.000378781950543,-0.09751404671038476,-0.03073566018660731,0
2,8.000000000008001e-05,5.000378781950543,-0.09225341005923197,-0.025700033471325642,0
3,0.00011999999999989797,5.001036362253937,-0.08797914275542355,-0.021650681652081796,0
4,0.00015999999999993797,5.000378781950543,-0.08304729583888733,-0.016943654754700388,0
5,0.00019999999999997797,5.000707572102282,-0.07811544889290346,-0.012236531348779792,0
6,0.00024000000000001798,5.000707572102282,-0.07285481211811588,-0.007200520621712295,0
7,0.000280000000000058,5.000378781950543,-0.06759417530993413,-0.0021644113560944783,0
8,0.000320000000000098,5.000707572102282,-0.0629911180754263,0.0022142178533711837,0
9,0.00035999999999991594,5.000378781950543,-0.057730481204784426,0.007250527228402623,0
10,0.00039999999999995595,4.99972120164681,-0.053456213722917104,0.011300568755536602,0
11,0.00043999999999999595,5.000378781950543,-0.048853156410254436,0.01567950266531526,0
12,0.00048000000000003595,5.000378781950543,-0.04326372963934923,0.02104490959567626,0
13,0.000520000000000076,5.000049991798719,-0.03767430283110791,0.02641042113571357,0
14,0.0005599999999998939,5.000049991798719,-0.03241366580107112,0.031447248479388346,0
15,0.0005999999999999339,5.000378781950543,-0.028139398189897927,0.035497812995036154,0
16,0.0006399999999999739,5.000378781950543,-0.023536340738185738,0.03987727495053864,0
17,0.0006800000000000139,5.000707572102282,-0.020248442542986647,0.04294168625679848,0
18,0.0007200000000000539,4.999392411494816,-0.01597417487006185,0.04699257665547674,0
19,0.0007600000000000939,5.000378781950543,-0.012686276645394332,0.050057208227471894,0
20,0.0007999999999999119,5.000049991798719,-0.0090695885834889,0.053450741264611246,0
21,0.0008399999999999519,4.99972120164681,-0.006110480157705198,0.056186807299309055,0
22,0.0008799999999999919,5.000378781950543,-0.0015074225859438989,0.06056693611887193,0
23,0.0009200000000000319,5.000049991798719,0.00013652655288240445,0.06198807114901922,0
24,0.0009600000000000719,5.000378781950543,0.0030956350107915753,0.06472448114581678,0
25,0.001000000000000112,5.000049991798719,0.004739584158527918,0.0661458484834643,0
26,0.0010399999999999299,4.99972120164681,0.006712323140007484,0.06789612330873218,0
27,0.0010799999999999699,5.000049991798719,0.009342641789095676,0.07030409645773025,0
28,0.0011200000000000099,5.000378781950543,0.010986590948902406,0.07172581977519438,0
29,0.0011600000000000499,4.99972120164681,0.013945699444547363,0.074462823087243,0
30,0.0012000000000000899,5.000049991798719,0.014603279111640999,0.07489841922984969,0
31,0.0012399999999999078,4.99972120164681,0.014932068945377922,0.07500534819792798,0
32,0.0012799999999999478,5.000049991798719,0.015589648613231935,0.07544119065801808,0
33,0.0013199999999999878,5.000707572102282,0.015918438447348998,0.07554836794067116,0
34,0.0013600000000000279,5.000378781950543,0.015918438447348998,0.07532688104324273,0
35,0.0014000000000000679,5.000707572102282,0.016904807950460177,0.07609189030001864,0
36,0.0014400000000001079,5.000049991798719,0.015918438447348998,0.07488428819803675,0
37,0.0014799999999999258,5.000378781950543,0.016576018115963126,0.07532076391092121,0
38,0.0015199999999999658,5.000049991798719,0.014932068945377922,0.07345584042272016,0
39,0.0015600000000000058,5.001036362253937,0.013945699444547363,0.07224862723664816,0
40,0.0016000000000000458,5.000378781950543,0.013616909611190692,0.07169912534396444,0
41,0.0016400000000000858,4.99972120164681,0.011315380781244458,0.06917701707341675,0
42,0.0016799999999999038,5.000049991798719,0.010000221452637598,0.06764141191500775,0
43,0.0017199999999999438,4.99972120164681,0.009342641789095676,0.06676352102379124,0
44,0.0017599999999999838,5.000707572102282,0.007041112970698912,0.0642418165704216,0
45,0.0018000000000000238,4.999392411494816,0.00506837398845672,0.062049038535719706,0
46,0.0018400000000000638,5.000378781950543,0.003753214669504526,0.060513977735861216,0
47,0.0018800000000001038,5.000707572102282,0.0004653163810297567,0.057006316526293774,0
48,0.0019199999999999218,5.000049991798719,-0.0005210531030302584,0.05580032366842651,0
49,0.0019599999999999618,5.000049991798719,-0.0024937920677107622,0.053608101863898916,0
50,0.0020000000000000018,5.000049991798719,-0.004466531027802631,0.05141602158378922,0
51,0.0020400000000000418,4.99972120164681,-0.005124110680146385,0.05053924311631182,0
52,0.002080000000000082,5.000049991798719,-0.007096849634115457,0.04834744883632547,0
53,0.0021199999999998997,5.000049991798719,-0.00874079875891258,0.046484588858028475,0
54,0.0021599999999999397,5.000378781950543,-0.010713537704454032,0.04429308451406591,0
55,0.0021999999999999797,5.000707572102282,-0.013672646114138112,0.04111535714275254,0
56,0.0022400000000000198,5.000378781950543,-0.014330225759327644,0.04023930595358177,0
57,0.0022800000000000598,5.000049991798719,-0.01597417487006185,0.03837703369650536,0
58,0.0023200000000000998,5.000378781950543,-0.017946913798717698,0.036186120998263294,0
59,0.0023599999999999177,4.99972120164681,-0.018933283261316228,0.03498172812106895,0
60,0.0023999999999999577,5.000049991798719,-0.01991965272276132,0.03377748657736179,0
61,0.0024399999999999977,5.001036362253937,-0.021234812002893247,0.03224460752374533,0
62,0.0024800000000000377,4.99972120164681,-0.023536340738185738,0.02972551229928147,0
63,0.0025200000000000777,4.99972120164681,-0.025180289830972882,0.027864150976255025,0
64,0.0025599999999998957,5.000049991798719,-0.025509079649145103,0.02731810416046923,0
65,0.0025999999999999357,4.99972120164681,-0.026495449102891075,0.02611463391449516,0
66,0.0026399999999999757,5.001036362253937,-0.028468188006913683,0.023924951395447265,0
67,0.0026800000000000157,4.99972120164681,-0.028139398189897927,0.02403695574550689,0
68,0.0027200000000000557,5.001036362253937,-0.029454557457189598,0.022505170129235114,0
69,0.0027600000000000957,4.99972120164681,-0.030769716722423582,0.020973544601935866,0
70,0.0027999999999999137,5.000378781950543,-0.030112137090063842,0.021414819027107422,0
71,0.0028399999999999537,5.000378781950543,-0.030769716722423582,0.02054109620941378,0
72,0.0028799999999999937,4.99972120164681,-0.030112137090063842,0.020982695644277426,0
73,0.0029200000000000337,4.999063621342738,-0.029454557457189598,0.02142445903247473,0
74,0.0029600000000000737,4.99972120164681,-0.030112137090063842,0.02055122807171344,0
75,0.0029999999999998916,4.99972120164681,-0.028796977823800904,0.021650901889830695,0
76,0.0030399999999999316,5.000049991798719,-0.028139398189897927,0.022093162917253252,0
77,0.0030799999999999716,5.000378781950543,-0.028468188006913683,0.021549222296310212,0
78,0.0031200000000000117,5.000707572102282,-0.026495449102891075,0.02330697915880206,0
79,0.0031600000000000517,5.000049991798719,-0.027481818555480722,0.02210579738586861,0
80,0.0032000000000000917,4.99972120164681,-0.025509079649145103,0.023863894650776353,0
81,0.0032399999999999096,5.000707572102282,-0.024522710194243194,0.02463579409982531,0
82,0.0032799999999999496,5.000378781950543,-0.024193920375685754,0.024750286503685257,0
83,0.0033199999999999896,5.000378781950543,-0.024193920375685754,0.024536162634636864,0
84,0.0033600000000000296,5.000378781950543,-0.0228787611001723,0.02563737254014932,0
85,0.0034000000000000696,4.99972120164681,-0.02320755091924319,0.025094808802419467,0
86,0.0034400000000001096,5.000049991798719,-0.0228787611001723,0.02521000110535602,0
87,0.0034799999999999276,5.000049991798719,-0.021892391642189743,0.025982950399790906,0
88,0.0035199999999999676,5.000049991798719,-0.02090602218305261,0.026756077996900128,0
89,0.0035600000000000076,5.000049991798719,-0.01991965272276132,0.027529384844479032,0
90,0.0036000000000000476,5.000707572102282,-0.020248442542986647,0.026987712607506778,0
91,0.0036400000000000876,5.000049991798719,-0.02090602218305261,0.02611743169215508,0
92,0.0036799999999999056,5.000707572102282,-0.020577232363083744,0.026233702322632432,0
93,0.0037199999999999456,4.99972120164681,-0.01991965272276132,0.026678945802419585,0
94,0.0037599999999999856,5.000378781950543,-0.018933283261316228,0.027453163074268268,0
95,0.0038000000000000256,5.000049991798719,-0.018275703619711994,0.02789877543800985,0
96,0.0038400000000000656,5.000049991798719,-0.017289334156344746,0.02867336347484707,0
97,0.0038800000000001056,5.000378781950543,-0.01630296469182467,0.029448138302564195,0
98,0.0039199999999999235,5.000378781950543,-0.01564538504817102,0.029894311036323853,0
99,0.0039599999999999635,5.000378781950543,-0.01597417487006185,0.029354302967408888,0
100,0.0040000000000000036,5.000378781950543,-0.014987805404005308,0.03012964378404271,0
101,0.0040400000000000436,5.000049991798719,-0.014659015581730453,0.030247595487990164,0
102,0.0040800000000000836,5.000049991798719,-0.012686276645394332,0.03200968776934206,0
103,0.0041199999999999015,5.000707572102282,-0.0116999071754995,0.03278560297858936,0
104,0.0041599999999999415,5.000378781950543,-0.012686276645394332,0.031588972572114536,0
105,0.0041999999999999815,5.000049991798719,-0.0116999071754995,0.03236527535795666,0
106,0.0042400000000000215,5.000378781950543,-0.010384747880516562,0.03347056314859453,0
107,0.0042800000000000615,4.99972120164681,-0.010384747880516562,0.03326088774984979,0
108,0.0043200000000001015,5.000378781950543,-0.010055958056451306,0.033380199205367354,0
109,0.0043599999999999195,5.000049991798719,-0.010055958056451306,0.03317091879030927,0
110,0.0043999999999999595,5.000378781950543,-0.008412008934208556,0.03460578637296356,0
111,0.0044399999999999995,4.99972120164681,-0.007425639459330238,0.03538327410438226,0
112,0.0044800000000000395,5.000049991798719,-0.007096849634115457,0.0355033829015965,0
113,0.0045200000000000795,4.99972120164681,-0.005124110680146385,0.03726764246101709,0
114,0.0045599999999998975,5.000378781950543,-0.007096849634115457,0.03508662666259904,0
115,0.0045999999999999375,4.998734831190575,-0.0031513717215847087,0.03882403119607402,0
116,0.0046399999999999775,4.999392411494816,-0.006768059808773,0.034999474109154945,0
117,0.0046800000000000175,5.003666683464122,-0.002165002240582567,0.03939486796950113,0
118,0.0047200000000000575,5.000049991798719,-0.004137741201439435,0.037214671503869715,0
119,0.0047600000000000975,4.99972120164681,-0.0047953208540382625,0.0363498414593625,0
120,0.0047999999999999154,5.001036362253937,-0.0015074225859438989,0.039430697356816306,0
121,0.0048399999999999554,4.998406041038327,-0.003808951374948702,0.03692233512543745,0
122,0.0048799999999999955,5.001365152405508,-0.00019226327513760522,0.04033239961672852,0
123,0.0049200000000000355,4.99972120164681,0.0007941062093044515,0.04111235623067284,0
124,0.0049600000000000755,5.000378781950543,0.0024380553525874815,0.042550104144221244,0
125,0.004999999999999893,5.000049991798719,0.00013652655288240445,0.04004258665684994,0
126,0.005039999999999933,5.001693942556992,0.003424424840084442,0.04312470969831563,0
127,0.005079999999999973,5.000049991798719,0.0030956350107915753,0.04259035896362584,0
128,0.005120000000000013,5.000378781950543,0.004082004499051814,0.04337138278377808,0
129,0.005160000000000053,5.000049991798719,0.004739584158527918,0.043823832907916443,0
130,0.0052000000000000934,5.000049991798719,0.004739584158527918,0.04361892039935407,0
131,0.005239999999999911,4.99972120164681,0.005725953648695714,0.04440059530025572,0
132,0.005279999999999951,5.000049991798719,0.007041112970698912,0.04551127884331749,0
133,0.005319999999999991,5.000049991798719,0.0076986926324629085,0.045964602425992845,0
134,0.005360000000000031,5.000049991798719,0.008027482463535476,0.04608935676584906,0
135,0.005400000000000071,4.99972120164681,0.008356272294735026,0.0462143325802074,0
136,0.005440000000000111,4.99972120164681,0.009671431620803153,0.04732590024878754,0
137,0.005479999999999929,5.000049991798719,0.01032901128459894,0.04778011149789386,0
138,0.005519999999999969,5.000378781950543,0.010000221452637598,0.04724817737594603,0
139,0.005560000000000009,5.000049991798719,0.011972960446309217,0.04901799708468968,0
140,0.005600000000000049,5.000378781950543,0.011972960446309217,0.04881530368361889,0
141,0.005640000000000089,5.000049991798719,0.01295932994485767,0.049599206542187524,0
142,0.005679999999999907,5.000378781950543,0.013616909611190692,0.05005454720529257,0
143,0.005719999999999947,5.000378781950543,0.01295932994485767,0.04919495704656342,0
144,0.005759999999999987,5.000049991798719,0.013616909611190692,0.049650755603823274,0
145,0.005800000000000027,4.99972120164681,0.015260858779241576,0.05109315391701828,0
146,0.005840000000000067,5.000707572102282,0.015260858779241576,0.05089183418566929,0
147,0.005880000000000107,5.000049991798719,0.01789117745471111,0.05332106512097363,0
148,0.005919999999999925,5.000049991798719,0.016576018115963126,0.05180505089930069,0
149,0.005959999999999965,5.000049991798719,0.016576018115963126,0.051604429738044036,0
150,0.006000000000000005,5.000378781950543,0.016247228281592724,0.05107525332687711,0
151,0.006040000000000045,5.000049991798719,0.016904807950460177,0.05153268186455587,0
152,0.006080000000000085,5.000378781950543,0.016904807950460177,0.051332767038470735,0
153,0.006119999999999903,4.99972120164681,0.017233597785083862,0.051461879209948776,0
154,0.006159999999999943,5.000049991798719,0.016576018115963126,0.05060485989679018,0
155,0.006199999999999983,5.000049991798719,0.015918438447348998,0.04974807945773879,0
156,0.006240000000000023,5.000378781950543,0.016247228281592724,0.049877908247955356,0
157,0.006280000000000063,5.000378781950543,0.016247228281592724,0.049679187781456635,0
158,0.006320000000000103,4.99972120164681,0.014603279111640999,0.04783675957195406,0
159,0.006359999999999921,5.000049991798719,0.014274489278030808,0.04730973297345354,0
160,0.006399999999999961,5.000378781950543,0.01328811977796078,0.046125369829151774,0
161,0.006440000000000001,5.000707572102282,0.01328811977796078,0.04592762014985431,0
162,0.006480000000000041,5.000049991798719,0.01295932994485767,0.04540132544493352,0
163,0.006520000000000081,4.99972120164681,0.012301750279031881,0.044546486555577344,0
164,0.006559999999999899,5.000378781950543,0.012630540111881347,0.04467826365224547,0
165,0.006599999999999939,5.000378781950543,0.012630540111881347,0.04448149824072148,0
166,0.006639999999999979,4.99972120164681,0.01295932994485767,0.044613770822378294,0
167,0.006680000000000019,5.000049991798719,0.012630540111881347,0.0440887127320652,0
168,0.006720000000000059,5.000049991798719,0.011972960446309217,0.0432351146351407,0
169,0.006760000000000099,5.000049991798719,0.013616909611190692,0.04468329602487156,0
170,0.006799999999999917,5.000707572102282,0.01328811977796078,0.04415898990111813,0
171,0.006839999999999957,5.000378781950543,0.01328811977796078,0.043963725921847364,0
172,0.006879999999999997,5.000378781950543,0.014274489278030808,0.04475508457871771,0
173,0.006920000000000037,5.000049991798719,0.013616909611190692,0.04390274802775237,0
174,0.006960000000000077,5.001036362253937,0.014274489278030808,0.04436582559072243,0
175,0.006999999999999895,5.000707572102282,0.015260858779241576,0.04515794858766887,0
176,0.007039999999999935,4.99972120164681,0.014932068945377922,0.04463516866665949,0
177,0.007079999999999975,4.99972120164681,0.015260858779241576,0.04477022564616365,0
178,0.007120000000000015,5.000378781950543,0.015589648613231935,0.04490554067239557,0
179,0.007160000000000055,5.000378781950543,0.015260858779241576,0.0443835348892023,0
180,0.007200000000000095,5.000378781950543,0.016576018115963126,0.045505737945362994,0
181,0.007239999999999913,5.000049991798719,0.01756238761983417,0.04629941164552633,0
182,0.007279999999999953,5.000378781950543,0.016904807950460177,0.045449397455625894,0
183,0.007319999999999993,5.000378781950543,0.01789117745471111,0.04624359452696928,0
184,0.007360000000000033,4.99972120164681,0.018548757124844717,0.046709264654353946,0
185,0.007400000000000073,5.000049991798719,0.020521496138282788,0.048490357815835994,0
186,0.007440000000000113,5.000378781950543,0.02085028597429857,0.04862776628941015,0
187,0.007479999999999931,5.000049991798719,0.020521496138282788,0.04810786037726837,0
188,0.007519999999999971,5.000378781950543,0.021836655483104705,0.049232169727153455,0
189,0.007560000000000011,4.99972120164681,0.024138184341410046,0.0513431154646496,0
190,0.007600000000000051,5.000378781950543,0.024795764016348754,0.051810379683902716,0
191,0.007640000000000091,4.99972120164681,0.0264397132059056,0.05326428187194368,0
192,0.007679999999999909,4.99972120164681,0.028412452237539368,0.05504724314332008,0
193,0.007719999999999949,5.000049991798719,0.029727611594485073,0.05617289476639107,0
194,0.007759999999999989,4.99972120164681,0.031700350633686175,0.05795639688125219,0
195,0.007800000000000029,4.99972120164681,0.031042770953448276,0.05710985186738192,0
196,0.00784000000000007,5.000049991798719,0.0323579303144281,0.058236318264623145,0
197,0.00788000000000011,5.000378781950543,0.03433066935967702,0.060020637493219495,0
198,0.007919999999999927,5.000378781950543,0.03433066935967702,0.059832491598844094,0
199,0.007959999999999967,5.000378781950543,0.0353170388840013,0.06063098992425292,0
200,0.008000000000000007,4.999392411494816,0.03564582872569445,0.060772184033657646,0
201,0.008040000000000047,4.99972120164681,0.034988249042434,0.05992728485387995,0
202,0.008080000000000087,5.000378781950543,0.03663219825152894,0.06138419156934277,0
203,0.008119999999999905,5.000378781950543,0.03663219825152894,0.06119742684367237,0
204,0.008159999999999945,5.000378781950543,0.03696098809372539,0.06133973049119214,0
205,0.008199999999999985,5.000378781950543,0.036303408409458296,0.06049594390422242,0
206,0.008240000000000025,5.000378781950543,0.037289777936047624,0.0612963865790047,0
207,0.008280000000000065,4.99972120164681,0.03663219825152894,0.06045316085042998,0
208,0.008320000000000105,5.000378781950543,0.03564582872569445,0.059281426843072825,0
209,0.008359999999999923,5.000378781950543,0.036303408409458296,0.05975392436054936,0
210,0.008399999999999963,5.000707572102282,0.03696098809372539,0.060226704944379095,0
211,0.008440000000000003,5.000378781950543,0.036303408409458296,0.0593846099740447,0
212,0.008480000000000043,5.000378781950543,0.03663219825152894,0.05952916909083665,0
213,0.008520000000000083,4.99972120164681,0.03663219825152894,0.05934522367065641,0
214,0.008559999999999901,5.000049991798719,0.03597461856751347,0.058503984613753175,0
215,0.008599999999999941,5.000378781950543,0.03597461856751347,0.058320612028229045,0
216,0.008639999999999981,4.999392411494816,0.0353170388840013,0.05747994728449771,0
217,0.008680000000000021,5.000049991798719,0.03564582872569445,0.057625940327081245,0
218,0.008720000000000061,5.000049991798719,0.03564582872569445,0.05744343252274206,0
219,0.008760000000000101,4.999392411494816,0.03564582872569445,0.05726121444468345,0
220,0.008799999999999919,5.000707572102282,0.03564582872569445,0.057079286822258025,0
221,0.008839999999999959,5.000049991798719,0.03597461856751347,0.05722644022447299,0
222,0.008879999999999999,5.000049991798719,0.03564582872569445,0.05671630585088817,0
223,0.008920000000000039,4.99972120164681,0.036303408409458296,0.057192833633563124,0
224,0.008960000000000079,4.99972120164681,0.03696098809372539,0.05766965476807207,0
225,0.008999999999999897,4.999392411494816,0.03597461856751347,0.056502820761894806,0
226,0.009039999999999937,5.000378781950543,0.03597461856751347,0.056322651067985716,0
227,0.009079999999999977,5.000378781950543,0.036303408409458296,0.056471566716135756,0
228,0.009120000000000017,5.000049991798719,0.03663219825152894,0.05662077857637185,0
229,0.009160000000000057,5.000378781950543,0.03597461856751347,0.055783917832108995,0
230,0.009200000000000097,5.000049991798719,0.036303408409458296,0.055933724242794775,0
231,0.009239999999999915,5.000049991798719,0.03564582872569445,0.05509745946192891,0
232,0.009279999999999955,4.99972120164681,0.03564582872569445,0.05491907340191339,0
233,0.009319999999999995,5.000049991798719,0.03564582872569445,0.05474098707966786,0
234,0.009360000000000035,5.000049991798719,0.03564582872569445,0.05456320119362314,0
235,0.009400000000000075,4.99972120164681,0.03564582872569445,0.05438571643995087,0
236,0.009439999999999893,5.000049991798719,0.03400187951848738,0.052564584305349715,0
237,0.009479999999999933,5.000049991798719,0.03400187951848738,0.05238770389586704,0
238,0.009519999999999973,5.000378781950543,0.031700350633686175,0.04990959780884861,0
239,0.009560000000000013,5.000049991798719,0.030056401434036775,0.04808937530131589,0
240,0.009600000000000053,4.99972120164681,0.029070031915759978,0.04692703705426602,0
241,0.009640000000000093,5.000049991798719,0.02676850304419573,0.04444984471551659,0
242,0.009679999999999911,5.000049991798719,0.025124553854007567,0.042630537999903496,0
243,0.009719999999999951,5.000378781950543,0.02216544531962629,0.03949637855971809,0
244,0.009759999999999991,5.000378781950543,0.019863916466630674,0.03702010609608139,0
245,0.009800000000000031,5.000378781950543,0.016576018115963126,0.03355777210315321,0
246,0.009840000000000071,5.000049991798719,0.014274489278030808,0.031082116262226768,0
247,0.009880000000000111,5.000378781950543,0.011315380781244458,0.0279491900702612,0
248,0.009919999999999929,5.000049991798719,0.009342641789095676,0.025802943356952622,0
249,0.009959999999999969,4.999392411494816,0.006383533309443135,0.02267063779401407,0
250,0.010000000000000009,5.000378781950543,0.00506837398845672,0.021182592689113128,0
251,0.010040000000000049,5.000049991798719,0.0030956350107915753,0.019037279886039746,0
252,0.010080000000000089,4.999392411494816,-0.0008498429307955274,0.014919540734316242,0
253,0.010119999999999907,4.99972120164681,-0.0005210531030302584,0.015076382621607001,0
254,0.010159999999999947,5.000378781950543,-0.0031513717215847087,0.012274429984248145,0
255,0.010199999999999987,5.000378781950543,-0.005452900506126915,0.009801581752191799,0
256,0.010240000000000027,5.000049991798719,-0.007425639459330238,0.007657838569990277,0
257,0.010280000000000067,5.000049991798719,-0.008412008934208556,0.006500780729454925,0
258,0.010320000000000107,5.000378781950543,-0.00939837840793746,0.005344039395828698,0
259,0.010359999999999925,5.000049991798719,-0.0116999071754995,0.002872455914134639,0
260,0.010399999999999965,5.000049991798719,-0.0116999071754995,0.0027027189833543352,0
261,0.010440000000000005,4.99972120164681,-0.012357486822223915,0.0018757208243624507,0
262,0.010480000000000045,5.000378781950543,-0.01301506646843685,0.001049041717124513,0
263,0.010520000000000085,4.999392411494816,-0.013343856291351444,0.0005514721147194951,0
264,0.010559999999999903,4.99972120164681,-0.012028696998925656,0.001698171937038126,0
265,0.010599999999999943,5.000378781950543,-0.012686276645394332,0.0008724537552445982,0
266,0.010639999999999983,4.99972120164681,-0.010713537704454032,0.0026773757185856867,0
267,0.010680000000000023,5.000378781950543,-0.010384747880516562,0.0028386707431311,0
268,0.010720000000000063,5.000378781950543,-0.010384747880516562,0.002671498739959907,0
269,0.010760000000000103,5.000049991798719,-0.010055958056451306,0.0028334399726148846,0
270,0.01079999999999992,5.000707572102282,-0.00939837840793746,0.003324495054539689,0
271,0.01083999999999996,5.001036362253937,-0.007754429284417372,0.004802244246866552,0
272,0.01088,5.000049991798719,-0.007096849634115457,0.00529394920945396,0
273,0.01092000000000004,4.99972120164681,-0.006110480157705198,0.006114769847213819,0
274,0.01096000000000008,4.99972120164681,-0.005781690331979852,0.006278337286434829,0
275,0.010999999999999899,5.000049991798719,-0.005452900506126915,0.0064422317785022,0
276,0.011039999999999939,5.000049991798719,-0.00348016154833046,0.008250403053289404,0
277,0.011079999999999979,5.000049991798719,-0.00348016154833046,0.008086163616593256,0
278,0.011120000000000019,5.000378781950543,-0.0018362124133269458,0.009566202154223838,0
279,0.011160000000000059,5.000049991798719,-0.0008498429307955274,0.01038899046918336,0
280,0.011200000000000099,5.000378781950543,-0.001178632758433426,0.009896949491714394,0
281,0.011239999999999917,5.000049991798719,-0.00019226327513760522,0.010720398428316028,0
282,0.011279999999999957,4.99972120164681,-0.00019226327513760522,0.010557809067605395,0
283,0.011319999999999997,5.000049991798719,0.001780475694892425,0.012368290443200022,0
284,0.011360000000000037,5.000378781950543,0.0014516858662357995,0.011877575364114226,0
285,0.011400000000000077,4.99972120164681,0.003424424840084442,0.013688722006704707,0
286,0.011439999999999895,4.99972120164681,0.004082004499051814,0.014185042826177954,0
287,0.011479999999999935,5.000378781950543,0.0030956350107915753,0.013037748560203372,0
288,0.011519999999999975,5.000049991798719,0.005725953648695714,0.015507477049605853,0
289,0.011560000000000015,5.000049991798719,0.004410794328726292,0.014032062775192117,0
290,0.011600000000000055,5.000378781950543,0.0030956350107915753,0.012556984259121162,0
291,0.011640000000000095,4.99972120164681,0.004082004499051814,0.013383770865204772,0
292,0.011679999999999913,5.000378781950543,0.0030956350107915753,0.012238155367774395,0
293,0.011719999999999953,5.000049991798719,0.003424424840084442,0.012408036615340484,0
294,0.011759999999999993,5.000049991798719,0.0030956350107915753,0.011920676183585596,0
295,0.011800000000000033,5.000378781950543,0.0024380553525874815,0.01110486445138488,0
296,0.011840000000000073,5.000707572102282,0.0027668451816259126,0.011275761281466706,0
297,0.011880000000000113,5.000378781950543,0.0021092655236763236,0.01046062824354381,0
298,0.01191999999999993,5.000378781950543,0.0021092655236763236,0.01030341502386041,0
299,0.01195999999999997,5.000049991798719,0.0021092655236763236,0.010146542503131573,0
300,0.01200000000000001,5.000049991798719,0.001780475694892425,0.009661221388590921,0
301,0.01204000000000005,4.99972120164681,0.0021092655236763236,0.009833821699955295,0
302,0.01208000000000009,5.000049991798719,0.0007941062093044515,0.008362815167208715,0
303,0.012119999999999909,5.000049991798719,0.0004653163810297567,0.00787852094764896,0
304,0.012159999999999949,4.999392411494816,0.0004653163810297567,0.007723359908830635,0
305,0.012199999999999989,4.99972120164681,-0.001178632758433426,0.005924593605719952,0
306,0.012240000000000029,4.999063621342738,-0.0005210531030302584,0.006427700492672522,0
307,0.012280000000000069,5.000707572102282,0.00013652655288240445,0.006931152292674478,0
308,0.012320000000000109,5.000378781950543,-0.00019226327513760522,0.006448580035938636,0
309,0.012359999999999927,5.000049991798719,-0.0005210531030302584,0.005966353718487055,0
310,0.012399999999999967,5.000049991798719,0.00013652655288240445,0.0064708433332618664,0
311,0.012440000000000007,4.99972120164681,-0.0005210531030302584,0.00566052059119386,0
312,0.012480000000000047,5.000378781950543,-0.0008498429307955274,0.00517933513610945,0
313,0.012520000000000087,4.99972120164681,-0.0008498429307955274,0.005027287468767558,0
314,0.012559999999999905,4.999392411494816,-0.0008498429307955274,0.0048755882598264105,0
315,0.012599999999999945,5.000049991798719,-0.0015074225859438989,0.004066658349838825,0
316,0.012639999999999985,5.000049991798719,-0.0015074225859438989,0.0039156575420756234,0
317,0.012680000000000025,5.000049991798719,-0.0028225818947114484,0.0024498473628628975,0
318,0.012720000000000065,5.000378781950543,-0.0018362124133269458,0.0032859163986253825,0
319,0.012760000000000105,4.99972120164681,-0.004137741201439435,0.0008344380744777224,0
320,0.012799999999999923,4.99972120164681,-0.004137741201439435,0.0006848399300469765,0
321,0.012839999999999963,4.999392411494816,-0.007754429284417372,-0.0030810944264907797,0
322,0.012880000000000003,5.000707572102282,-0.006110480157705198,-0.0015860392259565703,0
323,0.012920000000000043,4.998077250885994,-0.007754429284417372,-0.003378529457714191,0
324,0.012960000000000083,4.999392411494816,-0.007425639459330238,-0.0031979274455541246,0
325,0.0129999999999999,5.000707572102282,-0.0047953208540382625,-0.0007154428928542456,0
326,0.01303999999999994,4.999063621342738,-0.010055958056451306,-0.006123559922081592,0
327,0.01307999999999998,5.002351522859708,-0.005781690331979852,-0.001996417335982145,0
328,0.01312000000000002,4.998734831190575,-0.011042327528263687,-0.007403824522313945,0
329,0.01316000000000006,4.999392411494816,-0.009727168232258263,-0.006235079610937791,0
330,0.0132000000000001,4.997419670581074,-0.0090695885834889,-0.005723558287075894,0
331,0.013239999999999919,5.002351522859708,-0.00874079875891258,-0.005540470276178239,0
332,0.013279999999999959,5.000378781950543,-0.009727168232258263,-0.006672184603267378,0
333,0.013319999999999999,4.99972120164681,-0.01301506646843685,-0.010105070287352774,0
334,0.013360000000000039,5.001693942556992,-0.0113711173519455,-0.00860575076983948,0
335,0.013400000000000079,5.000049991798719,-0.010384747880516562,-0.007763652608181154,0
336,0.013439999999999896,4.999392411494816,-0.0113711173519455,-0.008893934662712336,0
337,0.013479999999999936,5.000707572102282,-0.010384747880516562,-0.00805111861307821,0
338,0.013519999999999976,5.000378781950543,-0.0116999071754995,-0.009509471736735622,0
339,0.013560000000000016,4.99972120164681,-0.0116999071754995,-0.00965230554330701,0
340,0.013600000000000056,5.000049991798719,-0.012686276645394332,-0.010781148371521637,0
341,0.013640000000000096,5.000378781950543,-0.012686276645394332,-0.01092326085827973,0
342,0.013679999999999914,4.99972120164681,-0.013343856291351444,-0.011722591698965515,0
343,0.013719999999999954,5.000049991798719,-0.013343856291351444,-0.011863981184043762,0
344,0.013759999999999994,4.99972120164681,-0.014987805404005308,-0.013648957657355326,0
345,0.013800000000000034,5.000378781950543,-0.013672646114138112,-0.012474463191810115,0
346,0.013840000000000074,5.000049991798719,-0.014987805404005308,-0.013929924360607387,0
347,0.013879999999999892,5.000378781950543,-0.01564538504817102,-0.014727442532117968,0
348,0.013919999999999932,5.000049991798719,-0.01564538504817102,-0.014867017304551047,0
349,0.013959999999999972,5.000049991798719,-0.01630296469182467,-0.015663807565270096,0
350,0.014000000000000012,4.999392411494816,-0.01630296469182467,-0.01580265362938646,0
351,0.014040000000000052,4.99972120164681,-0.0166317545134594,-0.016269924567485466,0
352,0.014080000000000092,5.000049991798719,-0.017618123977595282,-0.01739440980861265,0
353,0.01411999999999991,5.000378781950543,-0.01696054433496612,-0.016874580214566906,0
354,0.01415999999999995,5.000378781950543,-0.017289334156344746,-0.0173407539700757,0
355,0.01419999999999999,4.99972120164681,-0.01926207308192608,-0.019450510332181842,0
356,0.01424000000000003,5.000378781950543,-0.018933283261316228,-0.019258371070236188,0
357,0.01428000000000007,5.000049991798719,-0.01991965272276132,-0.020381023835130394,0
358,0.01432000000000011,4.99972120164681,-0.02090602218305261,-0.021503308969205548,0
359,0.014359999999999928,5.000049991798719,-0.022221181461645576,-0.022954015920374923,0
360,0.014399999999999968,5.000049991798719,-0.022221181461645576,-0.02308919522311305,0
361,0.014440000000000008,5.000707572102282,-0.0228787611001723,-0.023881585428823765,0
362,0.014480000000000048,4.99972120164681,-0.025180289830972882,-0.026317555628456973,0
363,0.014520000000000088,5.000378781950543,-0.024851500012672237,-0.026122837820762607,0
364,0.014559999999999906,5.000378781950543,-0.025180289830972882,-0.026585329834494173,0
365,0.014599999999999946,5.000707572102282,-0.026495449102891075,-0.028033821132648254,0
366,0.014639999999999986,5.000707572102282,-0.026824238920549456,-0.028495572456260526,0
367,0.014680000000000026,4.99972120164681,-0.02715302873807933,-0.02895695291131145,0
368,0.014720000000000066,5.001036362253937,-0.026495449102891075,-0.028431592700000313,0
369,0.014760000000000106,5.000378781950543,-0.026166659285104213,-0.028234650750178517,0
370,0.014799999999999924,5.000707572102282,-0.026824238920549456,-0.029023706358354856,0
371,0.014839999999999964,5.000049991798719,-0.026495449102891075,-0.028826020281821324,0
372,0.014880000000000004,5.000049991798719,-0.025837869467188898,-0.028299171822218527,0
373,0.014920000000000044,4.99972120164681,-0.025509079649145103,-0.028100740284785722,0
374,0.014960000000000084,5.000378781950543,-0.023865130556999917,-0.026586776250259708,0
375,0.014999999999999902,5.000378781950543,-0.020248442542986647,-0.023099699746333066,0
376,0.015039999999999942,5.000049991798719,-0.018933283261316228,-0.02191377810564181,0
377,0.015079999999999982,5.000049991798719,-0.017946913798717698,-0.021056272096308976,0
378,0.015120000000000022,5.000049991798719,-0.0166317545134594,-0.019869601760968844,0
379,0.015160000000000062,5.000049991798719,-0.014987805404005308,-0.018353766785426412,0
380,0.015200000000000102,5.000707572102282,-0.012357486822223915,-0.015851187211869205,0
381,0.01523999999999992,5.000049991798719,-0.00939837840793746,-0.013019442373419593,0
382,0.01527999999999996,4.99972120164681,-0.005781690331979852,-0.009529742137195568,0
383,0.01532,5.000378781950543,-0.0018362124133269458,-0.005710876021443961,0
384,0.01536000000000004,4.99972120164681,0.0021092655236763236,-0.001891633552770472,0
385,0.01540000000000008,5.000049991798719,0.005725953648695714,0.0015991957332372048,0
386,0.015439999999999898,4.99972120164681,0.011315380781244458,0.00706314094784341,0
387,0.015479999999999938,4.999392411494816,0.015918438447348998,0.011541093905827422,0
388,0.015519999999999978,5.000049991798719,0.02019270630239349,0.01569063454832518,0
389,0.015560000000000018,4.999392411494816,0.025453343691792682,0.02082692250349931,0
390,0.015600000000000058,5.000707572102282,0.030056401434036775,0.025306008869581467,0
391,0.0156400000000001,5.000049991798719,0.0353170388840013,0.030443053278179415,0
392,0.015679999999999916,5.000049991798719,0.03827614746376892,0.03327894742509631,0
393,0.015719999999999956,5.000378781950543,0.04189283574175878,0.0367728001494574,0
394,0.015759999999999996,5.000378781950543,0.04452315449893275,0.039280662499913785,0
395,0.015800000000000036,5.000378781950543,0.04715347326413659,0.04178890426998105,0
396,0.015840000000000076,5.000378781950543,0.05044137173192248,0.04495510541585928,0
397,0.015879999999999894,5.000049991798719,0.05274290066682373,0.04713531696070532,0
398,0.015919999999999934,5.000378781950543,0.05274290066682373,0.04701437975809929,0
399,0.015959999999999974,5.000049991798719,0.05504442960785576,0.04919535193654198,0
400,0.016000000000000014,4.99972120164681,0.05504442960785576,0.04907517586350526,0
401,0.016040000000000054,5.000049991798719,0.05471563975876172,0.04862659087742903,0
402,0.016080000000000094,5.000049991798719,0.054058060060948765,0.0478495972221541,0
403,0.016119999999999912,5.000049991798719,0.05340048036363608,0.04707298498732676,0
404,0.016159999999999952,4.99972120164681,0.050112581884580176,0.04366643562808982,0
405,0.016199999999999992,5.000378781950543,0.051098951426982675,0.04453453618198819,0
406,0.016240000000000032,5.000049991798719,0.048139842803156765,0.0414575406926332,0
407,0.016280000000000072,4.999392411494816,0.04682468341804723,0.040024876793220476,0
408,0.016320000000000112,5.000049991798719,0.045509524034943585,0.03859259547224094,0
409,0.01635999999999993,5.000049991798719,0.045509524034943585,0.03847585633294221,0
410,0.01639999999999997,5.000378781950543,0.045838313880531376,0.03868829005690476,0
411,0.01644000000000001,5.000378781950543,0.04682468341804723,0.039558686706509555,0
412,0.01648000000000005,5.000049991798719,0.048139842803156765,0.04075825665040528,0
413,0.01652000000000009,5.000049991798719,0.05044137173192248,0.042944579794577775,0
414,0.016559999999999908,5.000049991798719,0.050770161579389975,0.043158547720934325,0
415,0.016599999999999948,5.000049991798719,0.052414110818605225,0.044688059106319,0
416,0.016639999999999988,5.000378781950543,0.05340048036363608,0.04556037506553218,0
417,0.016680000000000028,5.000049991798719,0.05372927021222988,0.045775495793986355,0
418,0.016720000000000068,5.000378781950543,0.05471563975876172,0.046648580880652595,0
419,0.016760000000000108,5.000049991798719,0.05537321945707481,0.047193260970899036,0
420,0.016799999999999926,5.000049991798719,0.05570200930641887,0.04740953625242751,0
421,0.016839999999999966,5.000049991798719,0.05372927021222988,0.04532466781605167,0
422,0.016880000000000006,5.000049991798719,0.05307169051516736,0.044555344184732414,0
423,0.016920000000000046,5.000049991798719,0.051098951426982675,0.042471246749444566,0
424,0.016960000000000086,4.99972120164681,0.05044137173192248,0.04170269447057871,0
425,0.016999999999999904,5.000049991798719,0.04978379203736312,0.040934528128573976,0
426,0.017039999999999944,5.000378781950543,0.04879742249646346,0.03983795804656928,0
427,0.017079999999999984,5.000378781950543,0.048139842803156765,0.03907056408539368,0
428,0.017120000000000024,4.99972120164681,0.04912621234330475,0.039947505794718806,0
429,0.017160000000000064,4.99972120164681,0.04748226311035131,0.03819451532871118,0
430,0.017200000000000104,5.000049991798719,0.04715347326413659,0.03775707100484473,0
431,0.017239999999999922,4.99972120164681,0.05142774127470057,0.04192307144770294,0
432,0.017279999999999962,5.000707572102282,0.05274290066682373,0.043130350333518204,0
433,0.017320000000000002,5.000049991798719,0.05504442960785576,0.04532438597799916,0
434,0.017360000000000042,5.000049991798719,0.05866111795613836,0.04883396838475226,0
435,0.017400000000000082,5.000378781950543,0.061949016467688606,0.05201514845196375,0
436,0.0174399999999999,5.000707572102282,0.06589449469801162,0.05585429587421112,0
437,0.01747999999999994,4.99972120164681,0.07049755265605667,0.060351410796417954,0
438,0.01751999999999998,5.000378781950543,0.07510061063847716,0.06484891364811246,0
439,0.01756000000000002,4.99972120164681,0.07740213963881623,0.06704527555261197,0
440,0.01760000000000006,5.000049991798719,0.08430672667629135,0.07384508365580636,0
441,0.0176400000000001,5.000049991798719,0.08825220500793643,0.07768617133829896,0
442,0.017679999999999918,5.000049991798719,0.09351284281114798,0.08284280689795159,0
443,0.017719999999999958,5.000707572102282,0.09811590091487153,0.08734225128106994,0
444,0.017759999999999998,5.000049991798719,0.10271895904274086,0.09184208432554167,0
445,0.017800000000000038,5.000049991798719,0.10600685772026662,0.09502714666802399,0
446,0.017840000000000078,5.000049991798719,0.10995233614951355,0.09887017761861977,0
447,0.017879999999999896,5.000378781950543,0.11455539433929632,0.10337117729107254,0
448,0.017919999999999936,4.99972120164681,0.1168569234431935,0.10557103694077956,0
449,0.017959999999999976,4.99972120164681,0.12080240192096793,0.10941523512621126,0
450,0.018000000000000016,4.99972120164681,0.12310393104113287,0.11161587321147666,0
451,0.018040000000000056,5.000049991798719,0.12310393104113287,0.1115153715265034,0
452,0.018080000000000096,5.000378781950543,0.12409030066589298,0.11240162890558623,0
453,0.018119999999999914,5.000049991798719,0.1234327209159308,0.11164432643549857,0
454,0.018159999999999954,5.000378781950543,0.12310393104113287,0.1112162034492679,0
455,0.018199999999999994,5.000049991798719,0.12047361204714746,0.10848694103256794,0
456,0.018240000000000034,5.000049991798719,0.11915845255308817,0.10707322788142129,0
457,0.018280000000000074,4.999063621342738,0.11619934369861068,0.10401595520927553,0
458,0.018320000000000114,5.000378781950543,0.11291144498304434,0.10063028258613411,0
459,0.018359999999999932,5.000378781950543,0.10929475641007817,0.09691621008324171,0
460,0.018399999999999972,5.000707572102282,0.10469169824778124,0.0922161580331041,0
461,0.018440000000000012,5.000049991798719,0.10206137930871124,0.08948923530959625,0
462,0.018480000000000052,5.000378781950543,0.0971295313191825,0.08446117369722994,0
463,0.018520000000000092,5.000049991798719,0.09482800226688862,0.08206382123877584,0
464,0.01855999999999991,5.000049991798719,0.09088252390559022,0.07802290973995082,0
465,0.01859999999999995,5.000378781950543,0.08759462528475882,0.0746399682990614,0
466,0.01863999999999999,5.000049991798719,0.08430672667629135,0.07125741723371791,0
467,0.01868000000000003,5.000707572102282,0.07970366864523482,0.06656009715155899,0
468,0.01872000000000007,4.99972120164681,0.07542940049529606,0.06219195739576101,0
469,0.01876000000000011,5.000378781950543,0.07345666135624548,0.060125737132441646,0
470,0.018799999999999928,4.99972120164681,0.06885360338252611,0.05542958854926867,0
471,0.018839999999999968,5.000049991798719,0.06556570484479929,0.0520489899470056,0
472,0.018880000000000008,5.000049991798719,0.0626065961714958,0.048997571781062614,0
473,0.018920000000000048,4.99972120164681,0.05833232810566989,0.0446313848183503,0
474,0.018960000000000088,5.000049991798719,0.05471563975876172,0.04092316819104216,0
475,0.018999999999999906,4.99972120164681,0.052414110818605225,0.038530501604582386,0
476,0.019039999999999946,4.99972120164681,0.04912621234330475,0.035151856131562326,0
477,0.019079999999999986,5.000049991798719,0.04748226311035131,0.033417550560836874,0
478,0.019120000000000026,5.000378781950543,0.04419436465384674,0.030039686434748705,0
479,0.019160000000000066,5.000378781950543,0.040577676366185214,0.026333423150809984,0
480,0.019200000000000106,4.99972120164681,0.037618567778495635,0.023285130242144958,0
481,0.019239999999999924,5.000707572102282,0.03400187951848738,0.019579648335336028,0
482,0.019279999999999964,4.99972120164681,0.0313715607935042,0.016860926633477893,0
483,0.019320000000000004,4.99972120164681,0.028412452237539368,0.013813805763192771,0
484,0.019360000000000044,5.000707572102282,0.025124553854007567,0.010438285717402587,0
485,0.019400000000000084,5.000049991798719,0.02216544531962629,0.007391946159210558,0
486,0.019439999999999902,4.999392411494816,0.019206336795484613,0.004345997232970231,0
487,0.019479999999999942,5.000378781950543,0.015918438447348998,0.0009716490845917414,0
488,0.019519999999999982,5.000378781950543,0.011972960446309217,-0.003059888137811967,0
489,0.019560000000000022,5.000049991798719,0.009671431620803153,-0.005447085631900148,0
490,0.019600000000000062,5.000378781950543,0.006383533309443135,-0.008820262088277422,0
491,0.019640000000000102,5.000049991798719,0.003424424840084442,-0.011864258211424755,0
492,0.01967999999999992,5.000049991798719,0.00013652655288240445,-0.015236653696641886,0
493,0.01971999999999996,5.000049991798719,-0.001178632758433426,-0.016635919788772713,0
494,0.01976,5.000378781950543,-0.005452900506126915,-0.020993903941772474,0
495,0.01980000000000004,5.001036362253937,-0.008412008934208556,-0.024036338444460445,0
496,0.01984000000000008,5.000378781950543,-0.010384747880516562,-0.026092013182600376,0
497,0.019879999999999898,5.001036362253937,-0.013672646114138112,-0.029462456976321258,0
498,0.019919999999999938,4.99972120164681,-0.01860449344057817,-0.034476459685285454,0
499,0.019959999999999978,5.000049991798719,-0.021892391642189743,-0.037846123149118074,0
500,0.020000000000000018,5.000049991798719,-0.025180289830972882,-0.0412153965402052,0
501,0.020040000000000058,5.000049991798719,-0.028468188006913683,-0.04458427992203215,0
502,0.020080000000000098,4.99972120164681,-0.03340003524671499,-0.04959672243791324,0
503,0.020119999999999916,5.000049991798719,-0.03866067227056637,-0.054937564877761,0
504,0.020159999999999956,5.000378781950543,-0.04260615001678679,-0.05896285825272782,0
505,0.020199999999999996,5.000378781950543,-0.047537997173404054,-0.06397413132678456,0
506,0.020240000000000036,4.99972120164681,-0.052469844300912574,-0.06898501473947727,0
507,0.020280000000000076,4.99972120164681,-0.057401691399265334,-0.07399550857291814,0
508,0.020319999999999894,5.000378781950543,-0.06331990787873677,-0.07999198232264745,0
509,0.020359999999999934,4.999392411494816,-0.06825175491278114,-0.08500169725049084,0
510,0.020399999999999974,4.99972120164681,-0.07482755091257769,-0.09165497185910326,0
511,0.020440000000000014,5.000049991798719,-0.08173213665616903,-0.09863664702110628,0
512,0.020480000000000054,5.000707572102282,-0.08567761419804089,-0.10265882488866651,0
513,0.020520000000000094,5.000707572102282,-0.09060946109885244,-0.1076669831232247,0
514,0.02055999999999991,5.000378781950543,-0.09587009776051285,-0.11300354223057052,0
515,0.02059999999999995,5.000049991798719,-0.0998155752346823,-0.1170245533693425,0
516,0.02063999999999999,5.000049991798719,-0.10441863226392899,-0.12170275539218331,0
517,0.02068000000000003,5.000378781950543,-0.10639137098284411,-0.1237502505468539,0
518,0.02072000000000007,4.99972120164681,-0.10803531991164712,-0.12546856746983734,0
519,0.02076000000000011,5.000049991798719,-0.10935047905231472,-0.12685770628246645,0
520,0.02079999999999993,5.000378781950543,-0.10902168926734575,-0.12660250796968708,0
521,0.02083999999999997,5.000049991798719,-0.10737774034052165,-0.12503176244081754,0
522,0.02088000000000001,5.000378781950543,-0.10540500162397977,-0.12313183917662032,0
523,0.02092000000000005,5.000378781950543,-0.1024458935402696,-0.12024515873135691,0
524,0.02096000000000009,5.000049991798719,-0.09882920586791545,-0.11670051101834839,0
525,0.020999999999999908,5.000378781950543,-0.09389735901632983,-0.11184031658488697,0
526,0.021039999999999948,5.000049991798719,-0.08896551213519292,-0.10697973472161412,0
527,0.021079999999999988,5.000707572102282,-0.08271850604340404,-0.10080360639146976,0
528,0.021120000000000028,5.000378781950543,-0.07943060808137585,-0.09758619908198493,0
529,0.021160000000000068,4.99972120164681,-0.07285481211811588,-0.09108050681236154,0
530,0.021200000000000108,5.000049991798719,-0.06726538550831525,-0.08556079709055922,0
531,0.021239999999999926,4.998734831190575,-0.06134716905692379,-0.07971191087786865,0
532,0.021279999999999966,5.000707572102282,-0.05542895256342596,-0.07386263813318548,0
533,0.021320000000000006,5.000378781950543,-0.048853156410254436,-0.0673553994014219,0
534,0.021360000000000046,4.997419670581074,-0.04326372963934923,-0.06183414389006364,0
535,0.021400000000000086,4.999063621342738,-0.04063341114600001,-0.05927161066301018,0
536,0.021439999999999904,5.000378781950543,-0.031756086169998185,-0.05046168513172493,0
537,0.021479999999999944,4.998077250885994,-0.03208487598559902,-0.05085748874519512,0
538,0.021519999999999984,5.000707572102282,-0.027481818555480722,-0.046321059643888704,0
539,0.021560000000000024,4.99972120164681,-0.022549971280973066,-0.04145545540998059,0
540,0.021600000000000064,4.99972120164681,-0.01991965272276132,-0.03889099478805448,0
541,0.021640000000000104,4.99972120164681,-0.017946913798717698,-0.03698372888293211,0
542,0.02167999999999992,5.000049991798719,-0.01696054433496612,-0.03606244771073577,0
543,0.02171999999999996,4.99972120164681,-0.014330225759327644,-0.033496832892331393,0
544,0.02176,5.000049991798719,-0.012357486822223915,-0.031588413374229615,0
545,0.02180000000000004,4.999063621342738,-0.011042327528263687,-0.030337189360169853,0
546,0.02184000000000008,5.000049991798719,-0.00939837840793746,-0.02875679158281251,0
547,0.0218799999999999,5.000707572102282,-0.00808321910937683,-0.02750479989549584,0
548,0.02191999999999994,5.000707572102282,-0.006439269983302923,-0.025923634857181847,0
549,0.02195999999999998,5.000378781950543,-0.006110480157705198,-0.025657245807132516,0
550,0.02200000000000002,4.99972120164681,-0.005452900506126915,-0.02506168383319269,0
551,0.02204000000000006,5.000378781950543,-0.003808951374948702,-0.02347936949907102,0
552,0.0220800000000001,5.000707572102282,-0.0024937920677107622,-0.02222546232865949,0
553,0.022119999999999918,5.000378781950543,-0.0018362124133269458,-0.021628752374244838,0
554,0.022159999999999958,4.99972120164681,-0.0018362124133269458,-0.021689239863748024,0
555,0.022199999999999998,5.000049991798719,-0.001178632758433426,-0.02109176571729858,0
556,0.022240000000000038,5.000378781950543,-0.00019226327513760522,-0.020165119993807365,0
557,0.022280000000000078,4.99972120164681,0.00013652655288240445,-0.019895672412382145,0
558,0.022319999999999895,5.000049991798719,0.0014516858662357995,-0.01863947407085058,0
559,0.022359999999999935,4.998734831190575,0.003424424840084442,-0.01672531503549187,0
560,0.022399999999999975,5.000707572102282,0.004082004499051814,-0.01612593452612509,0
561,0.022440000000000015,5.000378781950543,0.004082004499051814,-0.016183753134277272,0
562,0.022480000000000055,5.000707572102282,0.005725953648695714,-0.014597242301773512,0
563,0.022520000000000095,5.000049991798719,0.00506837398845672,-0.01531188024156932,0
564,0.022559999999999913,5.000049991798719,0.005725953648695714,-0.014710979079721798,0
565,0.022599999999999953,5.000707572102282,0.006054743479005864,-0.014438488226041775,0
566,0.022639999999999993,4.99972120164681,0.007369902801517392,-0.013179248620785913,0
567,0.022680000000000033,5.000378781950543,0.006054743479005864,-0.01454994866654518,0
568,0.022720000000000073,5.001365152405508,0.006383533309443135,-0.014276320833690653,0
569,0.022760000000000113,5.000378781950543,0.007041112970698912,-0.01367352471566867,0
570,0.02279999999999993,5.000049991798719,0.005725953648695714,-0.015043089400842626,0
571,0.02283999999999997,4.99972120164681,0.006383533309443135,-0.014439537200455349,0
572,0.02288000000000001,5.000049991798719,0.005725953648695714,-0.015150766698967838,0
573,0.02292000000000005,4.99972120164681,0.004739584158527918,-0.016190408687480923,0
574,0.02296000000000009,5.000378781950543,0.005397163818512657,-0.01558572447255327,0
575,0.02299999999999991,5.000049991798719,0.003753214669504526,-0.017282192302414665,0
576,0.02303999999999995,4.99972120164681,0.0024380553525874815,-0.01864949382801484,0
577,0.02307999999999999,5.000707572102282,0.0027668451816259126,-0.018372470030468963,0
578,0.02312000000000003,4.99972120164681,0.0014516858662357995,-0.01973901949808296,0
579,0.02316000000000007,5.000049991798719,0.00013652655288240445,-0.02110519338525215,0
580,0.02320000000000011,5.000049991798719,0.0004653163810297567,-0.020827042856308015,0
581,0.023239999999999927,4.999392411494816,-0.00019226327513760522,-0.021534886843792914,0
582,0.023279999999999967,5.000049991798719,0.00013652655288240445,-0.021255986688859273,0
583,0.023320000000000007,4.99972120164681,-0.0018362124133269458,-0.02327824098250221,0
584,0.023360000000000047,5.000049991798719,-0.003808951374948702,-0.025300121241403302,0
585,0.023400000000000087,5.000378781950543,-0.004137741201439435,-0.025677678653433914,0
586,0.023439999999999905,4.99972120164681,-0.005124110680146385,-0.02671244232726845,0
587,0.023479999999999945,5.000378781950543,-0.005781690331979852,-0.027418043108052854,0
588,0.023519999999999985,5.001036362253937,-0.006439269983302923,-0.028123271149290398,0
589,0.023560000000000025,5.000049991798719,-0.006110480157705198,-0.027841757304611414,0
590,0.023600000000000065,5.000378781950543,-0.006110480157705198,-0.027888661209471713,0
591,0.023640000000000105,5.000707572102282,-0.006439269983302923,-0.028263983199701005,0
592,0.023679999999999923,5.000707572102282,-0.006768059808773,-0.028638933788292034,0
593,0.023719999999999963,4.99972120164681,-0.005452900506126915,-0.02736956418885867,0
594,0.023760000000000003,4.99972120164681,-0.006768059808773,-0.0287301424792918,0
595,0.023800000000000043,5.000707572102282,-0.006439269983302923,-0.028446401273541595,0
596,0.023840000000000083,5.000049991798719,-0.00348016154833046,-0.025531971440452002,0
597,0.0238799999999999,5.000378781950543,-0.0047953208540382625,-0.026891439683303354,0
598,0.02391999999999994,4.999392411494816,-0.0031513717215847087,-0.025291430179214952,0
599,0.02395999999999998,5.000707572102282,-0.0028225818947114484,-0.02500621103074832,0
600,0.02400000000000002,4.99972120164681,-0.0024937920677107622,-0.024720623293870134,0
601,0.02404000000000006,5.000378781950543,-0.002165002240582567,-0.024434667333104787,0
602,0.0240800000000001,5.000378781950543,-0.0024937920677107622,-0.02480592317020642,0
603,0.02411999999999992,5.000707572102282,-0.0028225818947114484,-0.025176811521002603,0
604,0.02415999999999996,5.000707572102282,-0.002165002240582567,-0.02456096327753947,0
605,0.0242,5.000378781950543,-0.0031513717215847087,-0.025588697431957956,0
606,0.02424000000000004,5.000378781950543,-0.004466531027802631,-0.026944855053050824,0
607,0.02428000000000008,5.000378781950543,-0.005124110680146385,-0.0276430670432593,0
608,0.024319999999999897,4.999392411494816,-0.006768059808773,-0.02932728291709006,0
609,0.024359999999999937,5.000378781950543,-0.006110480157705198,-0.02870960480572926,0
610,0.024399999999999977,5.000378781950543,-0.007096849634115457,-0.029735511006322025,0
611,0.024440000000000017,5.000049991798719,-0.005452900506126915,-0.02813073417976855,0
612,0.024480000000000057,5.000049991798719,-0.005124110680146385,-0.027840752628052322,0
613,0.024520000000000097,5.000378781950543,-0.005124110680146385,-0.02787919727351739,0
614,0.024559999999999915,4.99972120164681,-0.0047953208540382625,-0.027588488865236654,0
615,0.024599999999999955,5.000378781950543,-0.0047953208540382625,-0.027626207459372998,0
616,0.024639999999999995,5.000378781950543,-0.005124110680146385,-0.027992353462653323,0
617,0.024680000000000035,5.000378781950543,-0.005452900506126915,-0.02835813745834423,0
618,0.024720000000000075,5.000049991798719,-0.005124110680146385,-0.028065980206885027,0
619,0.024759999999999893,5.000378781950543,-0.00808321910937683,-0.031061360030485943,0
620,0.024799999999999933,5.000049991798719,-0.007754429284417372,-0.03076848083754466,0
621,0.024839999999999973,5.000049991798719,-0.00874079875891258,-0.03179040060225968,0
622,0.024880000000000013,5.000378781950543,-0.008412008934208556,-0.03149680114928134,0
623,0.024920000000000053,5.000707572102282,-0.00874079875891258,-0.03186042185326634,0
624,0.024960000000000093,5.000707572102282,-0.009727168232258263,-0.03288126314223766,0
625,0.02499999999999991,5.000378781950543,-0.010384747880516562,-0.03357295597399049,0
626,0.02503999999999995,5.000378781950543,-0.011042327528263687,-0.03426429060735485,0
627,0.02507999999999999,5.000049991798719,-0.012028696998925656,-0.035284057302734935,0
628,0.02512000000000003,4.99972120164681,-0.012028696998925656,-0.03531709720625113,0
629,0.02516000000000007,4.999392411494816,-0.012357486822223915,-0.03567857005427449,0
630,0.02520000000000011,4.99972120164681,-0.012357486822223915,-0.03571089664532758,0
631,0.02523999999999993,5.000049991798719,-0.013672646114138112,-0.0370580265424449,0
632,0.02527999999999997,5.000378781950543,-0.013343856291351444,-0.03676085178953087,0
633,0.02532000000000001,5.000049991798719,-0.013672646114138112,-0.03712090160007107,0
634,0.02536000000000005,5.000049991798719,-0.01301506646843685,-0.03649422731590205,0
635,0.02540000000000009,5.000049991798719,-0.014330225759327644,-0.03783993780068251,0
636,0.025439999999999907,4.99972120164681,-0.013343856291351444,-0.03688376582020734,0
637,0.025479999999999947,5.000049991798719,-0.012357486822223915,-0.035927240596115725,0
638,0.025519999999999987,4.99972120164681,-0.012686276645394332,-0.036285521888444444,0
639,0.025560000000000027,4.99972120164681,-0.011042327528263687,-0.034670711933840276,0
640,0.025600000000000067,5.000049991798719,-0.010713537704454032,-0.034370709437823575,0
641,0.025640000000000107,5.000049991798719,-0.009727168232258263,-0.03341277593323228,0
642,0.025679999999999925,5.000707572102282,-0.0090695885834889,-0.032783281369064846,0
643,0.025719999999999965,4.99972120164681,-0.0090695885834889,-0.03281101605048517,0
644,0.025760000000000005,4.99972120164681,-0.007754429284417372,-0.031523241512102576,0
645,0.025800000000000045,5.000049991798719,-0.007425639459330238,-0.031221487012046533,0
646,0.025840000000000085,4.99972120164681,-0.007754429284417372,-0.031576963214197895,0
647,0.025879999999999903,5.000049991798719,-0.007096849634115457,-0.030945721483295736,0
648,0.025919999999999943,5.000049991798719,-0.007096849634115457,-0.03097171143793888,0
649,0.025959999999999983,5.000049991798719,-0.006110480157705198,-0.030010984446922507,0
650,0.026000000000000023,5.000378781950543,-0.005781690331979852,-0.029707490135442563,0
651,0.026040000000000063,4.99972120164681,-0.006768059808773,-0.03071880865602076,0
652,0.026080000000000103,5.000049991798719,-0.005781690331979852,-0.029757042255821615,0
653,0.02611999999999992,5.000049991798719,-0.006110480157705198,-0.030110089696794195,0
654,0.02615999999999996,5.000049991798719,-0.007425639459330238,-0.03144916166073271,0
655,0.0262,5.000378781950543,-0.006768059808773,-0.030815150230530722,0
656,0.02624000000000004,4.999392411494816,-0.006768059808773,-0.03083837452245962,0
657,0.02628000000000008,5.000378781950543,-0.007754429284417372,-0.031847624877688496,0
658,0.0263199999999999,5.000378781950543,-0.007096849634115457,-0.031212583213252428,0
659,0.02635999999999994,4.99972120164681,-0.006439269983302923,-0.0305771991757502,0
660,0.02639999999999998,5.000049991798719,-0.006110480157705198,-0.030270263114601396,0
661,0.02644000000000002,5.000049991798719,-0.006110480157705198,-0.030291775556407666,0
662,0.02648000000000006,4.99972120164681,-0.005124110680146385,-0.029326577726749285,0
663,0.0265200000000001,5.000378781950543,-0.004137741201439435,-0.02836103963328534,0
664,0.026559999999999917,5.000707572102282,-0.003808951374948702,-0.028052741463133732,0
665,0.026599999999999957,5.000049991798719,-0.0031513717215847087,-0.027415314273457076,0
666,0.026639999999999997,5.000378781950543,-0.0018362124133269458,-0.02611996877497887,0
667,0.026680000000000037,4.99972120164681,-0.001178632758433426,-0.02548186481718643,0
668,0.026720000000000077,5.000378781950543,0.0004653163810297567,-0.02385705380585382,0
669,0.026759999999999895,5.000049991798719,0.0007941062093044515,-0.02354706508291916,0
670,0.026799999999999935,4.99972120164681,0.0007941062093044515,-0.023565529714113936,0
671,0.026839999999999975,5.000049991798719,0.0007941062093044515,-0.023583658422267284,0
672,0.026880000000000015,5.000378781950543,0.0014516858662357995,-0.022943872104003463,0
673,0.026920000000000055,4.999392411494816,0.0014516858662357995,-0.02296133062918578,0
674,0.026960000000000095,5.000707572102282,0.0027668451816259126,-0.021663295583931527,0
675,0.026999999999999913,5.000049991798719,0.0021092655236763236,-0.022337665817840555,0
676,0.027039999999999953,5.000049991798719,0.001780475694892425,-0.022682913091701905,0
677,0.027079999999999993,5.000049991798719,0.0014516858662357995,-0.023027827800265882,0
678,0.027120000000000033,5.000049991798719,-0.0005210531030302584,-0.025016359652391552,0
679,0.027160000000000073,5.000378781950543,-0.0018362124133269458,-0.026346980419025917,0
680,0.027200000000000113,4.99972120164681,-0.003808951374948702,-0.028334849983385643,0
681,0.02723999999999993,5.000049991798719,-0.004137741201439435,-0.028678440134326265,0
682,0.02727999999999997,5.001036362253937,-0.004466531027802631,-0.029021700584545257,0
683,0.02732000000000001,5.000049991798719,-0.005452900506126915,-0.030022211566200524,0
684,0.02736000000000005,4.99972120164681,-0.006439269983302923,-0.031022394008620065,0
685,0.02740000000000009,4.99972120164681,-0.005124110680146385,-0.02972071971741788,0
686,0.02743999999999991,5.000049991798719,-0.005781690331979852,-0.030391457015068547,0
687,0.02747999999999995,5.000049991798719,-0.0028225818947114484,-0.02744517944697867,0
688,0.02751999999999999,5.000378781950543,-0.0008498429307955274,-0.025484945167440237,0
689,0.02756000000000003,5.000378781950543,0.0030956350107915753,-0.021551646319599074,0
690,0.02760000000000007,5.000378781950543,0.009342641789095676,-0.015316493640903353,0
691,0.02764000000000011,4.99972120164681,0.015589648613231935,-0.00908101652104903,0
692,0.027679999999999927,5.000707572102282,0.024466974178816228,-0.0002148968655411032,0
693,0.027719999999999967,5.000049991798719,0.033015509995673945,0.00832275623202261,0
694,0.027760000000000007,5.000707572102282,0.045180734189481195,0.020477420291600136,0
695,0.027800000000000047,4.99972120164681,0.05800353825532628,0.0332899862002744,0
696,0.027840000000000087,5.000378781950543,0.07115513236633955,0.04643166352089052,0
697,0.027879999999999905,5.000707572102282,0.08660825570091973,0.06187519081928984,0
698,0.027919999999999945,4.999392411494816,0.1033765387772625,0.0786341979988461,0
699,0.027959999999999985,5.000049991798719,0.11850087280679227,0.09374957565390502,0
700,0.028000000000000025,4.999392411494816,0.1355979463691857,0.11083801174481524,0
701,0.028040000000000065,5.000049991798719,0.15433896969026495,0.12957071587582963,0
702,0.028080000000000105,5.000049991798719,0.1684769349116572,0.14370067956477242,0
703,0.028119999999999923,5.000378781950543,0.18721795891963036,0.16243401907188232,0
704,0.028159999999999963,5.000707572102282,0.20398624388728276,0.17919493594200997,0
705,0.028200000000000003,5.000378781950543,0.21976815943302316,0.19496979916310606,0
706,0.028240000000000043,4.999392411494816,0.2368652349144097,0.2120601374600678,0
707,0.028280000000000083,4.999392411494816,0.252975940946795,0.22816442081339208,0
708,0.0283199999999999,5.000049991798719,0.269415437186839,0.24459780824269658,0
709,0.02835999999999994,5.000707572102282,0.2871700934515535,0.2623466689257719,0
710,0.02839999999999998,5.000049991798719,0.3032808003528239,0.2784518928331118,0
711,0.02844000000000002,5.000378781950543,0.3210354572562264,0.2962013786867378,0
712,0.02848000000000006,5.000378781950543,0.33977648434735447,0.3149375460265344,0
713,0.0285200000000001,5.000378781950543,0.35851751180542657,0.33367402438386423,0
714,0.02855999999999992,5.000378781950543,0.3769297496629372,0.3520820231412274,0
715,0.02859999999999996,5.000707572102282,0.39665714775489636,0.37180549148150854,0
716,0.02864,4.99972120164681,0.4163845462447545,0.39152926891391016,0
717,0.02868000000000004,4.99972120164681,0.4374271050691152,0.41256851471867334,0
718,0.02872000000000008,5.000378781950543,0.45978482430819984,0.4349232283175506,0
719,0.028759999999999897,4.999392411494816,0.4808273840476788,0.4559630891356445,0
720,0.028799999999999937,4.99972120164681,0.5058154243070226,0.48094873652976716,0
721,0.028839999999999977,4.99972120164681,0.53047467516262,0.5056058999115649,0
722,0.028880000000000017,5.000707572102282,0.5551339266080012,0.5302633686077514,0
723,0.028920000000000057,4.99972120164681,0.581108338761798,0.556236302068075,0
724,0.028960000000000097,5.000049991798719,0.6077403316355725,0.5828671196331551,0
725,0.028999999999999915,5.000378781950543,0.6343723251757646,0.6094982405764392,0
726,0.029039999999999955,4.99972120164681,0.6603467392634013,0.6354720841039191,0
727,0.029079999999999995,5.000049991798719,0.6876363142257499,0.6627613898657926,0
728,0.029120000000000035,5.000049991798719,0.7129531494343542,0.6880782565545068,0
729,0.029160000000000075,5.000049991798719,0.7379411951399331,0.7130666337396642,0
730,0.029200000000000115,4.99972120164681,0.7622716612284882,0.7373977306241357,0
731,0.029239999999999933,5.000049991798719,0.7843005971900644,0.75942759601283,0
732,0.029279999999999973,4.99972120164681,0.8046855830830745,0.7798138092770258,0
733,0.029320000000000013,4.99972120164681,0.8227690386107763,0.7978987894308565,0
734,0.029360000000000053,5.000049991798719,0.837564593341559,0.812696165351604,0
735,0.029400000000000093,5.000378781950543,0.8490722471496732,0.82420593622044,0
736,0.02943999999999991,5.000378781950543,0.8566344197131056,0.831770521020305,0
737,0.02947999999999995,5.000378781950543,0.8635390120956833,0.8386778201180212,0
738,0.02951999999999999,4.99972120164681,0.8602511109561248,0.8353929194733506,0
739,0.02956000000000003,5.001693942556992,0.8566344197131056,0.8317795218040698,0
740,0.02960000000000007,4.99972120164681,0.847099506488891,0.8222481945296124,0
741,0.02964000000000011,4.99972120164681,0.8309887912159577,0.8061413568776996,0
742,0.02967999999999993,5.000707572102282,0.8148780761641601,0.7900348104115136,0
743,0.02971999999999997,5.000049991798719,0.7872597080231414,0.7624209011121189,0
744,0.02976000000000001,5.000049991798719,0.7612852909714974,0.7364512324476339,0
745,0.02980000000000005,5.002680313010939,0.7326805538924497,0.7078515325889116,0
746,0.02984000000000009,5.000378781950543,0.7007879168592654,0.6759642208949693,0
747,0.029879999999999907,5.000707572102282,0.6672513304545792,0.6424332472323155,0
748,0.029919999999999947,5.002022732708393,0.6340435351280255,0.6092313513325933,0
749,0.029959999999999987,5.001365152405508,0.603137271091026,0.5783312726873738,0
750,0.030000000000000027,4.998077250885994,0.5722310079532472,0.5474314801846238,0
751,0.030040000000000067,5.000378781950543,0.5386944255791728,0.513901652965285,0
752,0.030080000000000107,5.000049991798719,0.5081169543617657,0.48333122069694495,0
753,0.030119999999999925,5.000378781950543,0.4781970640562106,0.45341865240758755,0
754,0.030159999999999965,4.99972120164681,0.44992112458216393,0.4251503172878517,0
755,0.030200000000000005,5.000049991798719,0.423289135809651,0.398526214476937,0
756,0.030240000000000045,5.000049991798719,0.3983010976138952,0.3735463431174415,0
757,0.030280000000000085,4.99972120164681,0.3766009596981261,0.35185465217817835,0
758,0.030319999999999903,4.99972120164681,0.35457203231020334,0.3298344511708077,0
759,0.030359999999999943,4.99972120164681,0.33615979488006176,0.3114312187872906,0
760,0.030399999999999983,4.99972120164681,0.3180763477492352,0.29335705462942163,0
761,0.030440000000000023,5.000707572102282,0.30295201041330994,0.2782422774512908,0
762,0.030480000000000063,5.000049991798719,0.28749888338555557,0.26279898702292387,0
763,0.030520000000000103,5.000049991798719,0.2756624458341395,0.2509726617675051,0
764,0.03055999999999992,5.000049991798719,0.2628396386559461,0.23816024183520576,0
765,0.03059999999999996,5.000049991798719,0.252318361103246,0.22764962572986136,0
766,0.03064,5.000049991798719,0.24278345342427698,0.21812565294956154,0
767,0.03068000000000004,4.99972120164681,0.23259096601424928,0.20794437313766356,0
768,0.03072000000000008,4.99972120164681,0.2247000080969096,0.2000648947643652,0
769,0.0307599999999999,5.000049991798719,0.2161514704297157,0.19152810783188878,0
770,0.03079999999999994,5.000049991798719,0.2095756722785343,0.18496433084918812,0
771,0.03083999999999998,5.000049991798719,0.20365745398298266,0.1790584033972993,0
772,0.03088000000000002,5.000378781950543,0.19741044582385264,0.17282395499677378,0
773,0.03092000000000006,5.000049991798719,0.19346496700863167,0.16889130409320852,0
774,0.0309600000000001,5.000378781950543,0.19083464780801468,0.16627408019376672,0
775,0.030999999999999917,4.99972120164681,0.18425884983988045,0.1597116441511633,0
776,0.031039999999999957,4.99972120164681,0.1812997407698131,0.1567661628641952,0
777,0.031079999999999997,4.99972120164681,0.17669668223564464,0.15217699720229344,0
778,0.031120000000000037,5.000378781950543,0.1740663630838078,0.14956083524188468,0
779,0.031160000000000077,4.99972120164681,0.17110725404716948,0.14661614694423375,0
780,0.031199999999999894,5.000049991798719,0.1668329854558683,0.1423565618662903,0
781,0.031239999999999934,5.000049991798719,0.16157234721755911,0.13711086914094184,0
782,0.031279999999999974,5.000378781950543,0.1569692887843418,0.13252301744395156,0
783,0.031320000000000014,4.99972120164681,0.15302381014612548,0.12859300598733148,0
784,0.031360000000000054,4.99972120164681,0.1487495416410322,0.12433446432975537,0
785,0.031400000000000095,5.000049991798719,0.145461642804879,0.12106255122605,0
786,0.03143999999999991,5.000378781950543,0.1418449540991078,0.11746210635513402,0
787,0.03147999999999995,4.99972120164681,0.1388858451689418,0.11451949857818344,0
788,0.03151999999999999,5.000049991798719,0.13329641721659097,0.1089468283118464,0
789,0.03156000000000003,5.000049991798719,0.13132367794768446,0.10699110247468488,0
790,0.03160000000000007,5.000049991798719,0.12737819942302714,0.10306289233894045,0
791,0.03164000000000011,5.000049991798719,0.12540546016728232,0.10110767563922626,0
792,0.03167999999999993,5.000378781950543,0.12376151079085085,0.09948150219441573,0
793,0.03171999999999997,5.000049991798719,0.12178877154316266,0.0975267914609434,0
794,0.03176000000000001,5.000378781950543,0.11948724242641957,0.09524354264655704,0
795,0.03180000000000005,5.001036362253937,0.11915845255308817,0.09493328406782012,0
796,0.03184000000000009,5.000049991798719,0.11652813357084088,0.09232174657506198,0
797,0.03187999999999991,5.000378781950543,0.11554176395451755,0.09135440784434914,0
798,0.03191999999999995,5.000049991798719,0.11488418421091426,0.0907161075822836,0
799,0.03195999999999999,5.000378781950543,0.11324023485404966,0.0890916855012788,0
800,0.03200000000000003,5.000049991798719,0.11225386524140141,0.08812509015580558,0
801,0.03204000000000007,5.000049991798719,0.11356902472517753,0.089460270093673,0
802,0.03208000000000011,5.000049991798719,0.11258265511216159,0.08849416631588283,0
803,0.032119999999999926,5.000049991798719,0.11324023485404966,0.08917225646697624,0
804,0.032159999999999966,4.999392411494816,0.11291144498304434,0.08886422077063741,0
805,0.032200000000000006,4.99972120164681,0.11291144498304434,0.08888521790089265,0
806,0.032240000000000046,5.000378781950543,0.11258265511216159,0.0885776673046372,0
807,0.032280000000000086,5.000049991798719,0.11258265511216159,0.08859914791108495,0
808,0.032319999999999904,5.000049991798719,0.11159628550024885,0.08763449942356377,0
809,0.032359999999999944,5.000707572102282,0.11192507537076382,0.08798525012122227,0
810,0.032399999999999984,4.99972120164681,0.11060991588943969,0.08669229035329618,0
811,0.032440000000000024,5.000378781950543,0.10929475641007817,0.08539956865579401,0
812,0.032480000000000064,4.99972120164681,0.10732201719471773,0.08344950447167518,0
813,0.032520000000000104,5.000049991798719,0.10403411851227598,0.08018451724950187,0
814,0.03255999999999992,5.000049991798719,0.10008864010957542,0.0762621859144749,0
815,0.03259999999999996,5.000049991798719,0.0971295313191825,0.07332645897628226,0
816,0.03264,5.000378781950543,0.09121131376835284,0.06743185723805398,0
817,0.03268000000000004,5.000049991798719,0.08693704556207577,0.06318143797941655,0
818,0.03272000000000008,4.99972120164681,0.08069003822127407,0.056958511894702385,0
819,0.0327599999999999,4.99972120164681,0.0737854512124434,0.050078237622599,0
820,0.03279999999999994,5.000049991798719,0.06753844396594139,0.043855773764447686,0
821,0.03283999999999998,5.000378781950543,0.05997627735926084,0.036318380367526215,0
822,0.03288000000000002,5.000378781950543,0.052414110818605225,0.028781216026634054,0
823,0.03292000000000006,5.000378781950543,0.04353678496405114,0.019929120529264543,0
824,0.0329600000000001,5.000378781950543,0.03433066935967702,0.01074846260574358,0
825,0.03299999999999992,5.000378781950543,0.025782133529704057,0.002225610945380485,0
826,0.03303999999999996,5.000378781950543,0.015589648613231935,-0.0079409641487867,0
827,0.03308,5.000049991798719,0.005397163818512657,-0.018107314305707584,0
828,0.03312000000000004,5.000049991798719,-0.0028225818947114484,-0.026300701403971227,0
829,0.03316000000000008,5.000049991798719,-0.012357486822223915,-0.035809024578812076,0
830,0.033199999999999896,5.000378781950543,-0.01926207308192608,-0.04268680678869197,0
831,0.033239999999999936,5.000378781950543,-0.028139398189897927,-0.05153710639135056,0
832,0.033279999999999976,5.000049991798719,-0.03635914357669136,-0.05972960566008911,0
833,0.033320000000000016,4.99972120164681,-0.04194857039370768,-0.06529156659013746,0
834,0.033360000000000056,5.000707572102282,-0.04852436660123595,-0.07183967798668212,0
835,0.033400000000000096,5.000049991798719,-0.05378500352999273,-0.07707241202639614,0
836,0.033439999999999914,5.000378781950543,-0.057730481204784426,-0.08098976958109139,0
837,0.033479999999999954,4.99972120164681,-0.06101837925283336,-0.08424933112603394,0
838,0.033519999999999994,5.000049991798719,-0.06101837925283336,-0.0842207790889899,0
839,0.033560000000000034,4.99972120164681,-0.060689589448612954,-0.08386322256387796,0
840,0.033600000000000074,5.000378781950543,-0.057730481204784426,-0.08087513376640842,0
841,0.033640000000000114,5.000049991798719,-0.05378500352999273,-0.07690046255732175,0
842,0.03367999999999993,5.000049991798719,-0.0491819462191435,-0.07226799958460645,0
843,0.03371999999999997,5.000378781950543,-0.04161978058197445,-0.06467621701206039,0
844,0.03376000000000001,5.000378781950543,-0.03142729635426868,-0.05445390543049375,0
845,0.03380000000000005,5.000049991798719,-0.018933283261316228,-0.04192985542118055,0
846,0.03384000000000009,4.99972120164681,-0.003808951374948702,-0.026775277912882728,0
847,0.03387999999999991,5.000049991798719,0.012301750279031881,-0.010634122789268813,0
848,0.03391999999999995,5.000378781950543,0.0313715607935042,0.008466348183747502,0
849,0.03395999999999999,5.000378781950543,0.04945500219027131,0.026580656168261135,0
850,0.03400000000000003,5.000049991798719,0.07181271207711976,0.04896943791144534,0
851,0.03404000000000007,5.000707572102282,0.09482800226688862,0.07201600436463099,0
852,0.03408000000000011,5.000378781950543,0.11784329306098568,0.09506277496683299,0
853,0.03411999999999993,5.000707572102282,0.1418449540991078,0.1190961184944814,0
854,0.03415999999999997,5.000049991798719,0.16749056523782313,0.14477361394001387,0
855,0.03420000000000001,5.000378781950543,0.1924785973075063,0.16979373126882158,0
856,0.03424000000000005,5.000378781950543,0.21648026033851664,0.1938276796454377,0
857,0.03428000000000009,5.000378781950543,0.2408107139167699,0.21819061778911944,0
858,0.034319999999999906,5.000049991798719,0.26579874798910247,0.2432113347792229,0
859,0.034359999999999946,4.99972120164681,0.28947162299198576,0.26691709018392784,0
860,0.034399999999999986,5.000378781950543,0.31248691870564554,0.2899654629143672,0
861,0.034440000000000026,5.000049991798719,0.33615979488006176,0.31367161185063686,0
862,0.034480000000000066,5.000049991798719,0.35818872184687417,0.3357340064537118,0
863,0.034520000000000106,4.99972120164681,0.3795600693854337,0.3571390156315075,0
864,0.034559999999999924,5.000378781950543,0.40191778731341055,0.3795305883294988,0
865,0.034599999999999964,5.000378781950543,0.4219739758888044,0.39962082393274057,0
866,0.034640000000000004,5.000378781950543,0.4436741148060494,0.4213552012619823,0
867,0.034680000000000044,5.000049991798719,0.46636062417950513,0.4440761395571699,0
868,0.034720000000000084,4.99972120164681,0.4913486640819322,0.46909879801593124,0
869,0.0347599999999999,5.001036362253937,0.5156791245781108,0.49346406582720576,0
870,0.03479999999999994,5.000378781950543,0.5423111157831603,0.5201310522295737,0
871,0.03483999999999998,5.000378781950543,0.5719022179247422,0.5497573365734705,0
872,0.03488000000000002,5.000049991798719,0.6024796910148611,0.5803701779929972,0
873,0.03492000000000006,5.000049991798719,0.6353586953195843,0.6132847358756508,0
874,0.0349600000000001,5.000378781950543,0.6702104409784629,0.6481722194817566,0
875,0.03499999999999992,5.000707572102282,0.7080212983743364,0.6860189983142815,0
876,0.03503999999999996,4.99972120164681,0.7468185273007879,0.7248523312863013,0
877,0.03508,5.000378781950543,0.7875884981161755,0.7656585878750427,0
878,0.03512000000000004,5.000049991798719,0.8296736307952547,0.807780187173518,0
879,0.03516000000000008,5.000049991798719,0.8734027155687349,0.8515459185300899,0
880,0.0351999999999999,5.000049991798719,0.9174605920686255,0.8956406206938283,0
881,0.03523999999999994,5.000049991798719,0.964148791285789,0.9423658237720746,0
882,0.03527999999999998,5.000378781950543,1.0114945725536517,0.9897487862141632,0
883,0.03532000000000002,5.000378781950543,1.0594979359043786,1.0377895071676084,0
884,0.03536000000000006,5.000049991798719,1.109474042080452,1.0878031464896947,0
885,0.0354000000000001,5.000707572102282,1.158463779540603,1.1368305917534152,0
886,0.035439999999999916,5.000378781950543,1.2061383579309843,1.1845430517186557,0
887,0.035479999999999956,5.000049991798719,1.2518401966509052,1.230282944897937,0
888,0.035519999999999996,5.000378781950543,1.296884456361486,1.2753654310650795,0
889,0.035560000000000036,5.000049991798719,1.3376544444243406,1.3161738166938948,0
890,0.035600000000000076,5.000378781950543,1.3741501604667992,1.3527081005234196,0
891,0.035639999999999894,5.000049991798719,1.4047276529420392,1.3833243301180567,0
892,0.035679999999999934,5.000049991798719,1.4280717604956574,1.4067073432341577,0
893,0.035719999999999974,5.000049991798719,1.4441824828067336,1.4228571386610966,0
894,0.035760000000000014,5.000049991798719,1.451087078131579,1.4298009737650297,1
895,0.035800000000000054,5.000707572102282,1.449443126861122,1.4281964280462927,0
896,0.035840000000000094,4.99972120164681,1.4389218387692635,1.4177147103877654,0
897,0.03587999999999991,5.000049991798719,1.418536843284923,1.3973694493269322,0
898,0.03591999999999995,5.000049991798719,1.3899320919930478,1.3688045955568957,0
899,0.03595999999999999,5.000049991798719,1.3521212146444652,1.3310337779362413,0
900,0.03600000000000003,4.99972120164681,1.3074057434981015,1.2863585278312653,0
901,0.03604000000000007,5.000707572102282,1.2564432596237003,1.2354364254187034,0
902,0.03608000000000011,5.000049991798719,1.199562553918878,1.178596260702795,0
903,0.03611999999999993,5.000049991798719,1.1390651584569085,1.1181395648630783,0
904,0.03615999999999997,5.000378781950543,1.0759374443071854,1.0550527080748582,0
905,0.03620000000000001,5.000378781950543,1.0121521528614639,0.9913084308354623,0
906,0.03624000000000005,5.000049991798719,0.9467229139071497,0.9259203620375365,0
907,0.03628000000000009,5.000707572102282,0.8816224685250434,0.8608612418668002,0
908,0.03631999999999991,4.99972120164681,0.8168508167708113,0.7961310694835264,0
909,0.03635999999999995,4.999392411494816,0.7530655388632145,0.732387424210782,0
910,0.03639999999999999,5.000049991798719,0.6879651042896769,0.6673287746400027,0
911,0.03644000000000003,5.000378781950543,0.6281253142859144,0.6075309211106346,0
912,0.03648000000000007,4.99972120164681,0.5679567375907285,0.5474044314649356,0
913,0.03652000000000011,5.001365152405508,0.5127200144867996,0.4922099450887794,0
914,0.036559999999999926,4.99972120164681,0.4574832943634291,0.4370156104744062,0
915,0.036599999999999966,5.000378781950543,0.4058632670008305,0.3854381165047238,0
916,0.036640000000000006,5.000378781950543,0.35621598209791566,0.33583351198110445,0
917,0.036680000000000046,5.000049991798719,0.3111717589354729,0.29083211528657255,0
918,0.036720000000000086,5.000378781950543,0.2674426976226972,0.24714602563234578,0
919,0.036759999999999904,5.000049991798719,0.22700153748246513,0.2067479814431204,0
920,0.036799999999999944,5.000049991798719,0.19017706800905274,0.1699667713147987,0
921,0.036839999999999984,4.99972120164681,0.15401017980404885,0.13384328495041237,0
922,0.036880000000000024,5.000378781950543,0.12145998166897555,0.10133663025275325,0
923,0.036920000000000064,5.000049991798719,0.0902249441804355,0.07014527689953048,0
924,0.036960000000000104,5.000049991798719,0.061949016467688606,0.04191317312095766,0
925,0.03699999999999992,5.000707572102282,0.03827614746376892,0.01828426695087948,0
926,0.03703999999999996,5.000378781950543,0.015260858779241576,-0.004686920899460767,0
927,0.03708,4.99972120164681,-0.0024937920677107622,-0.022397333811325915,0
928,0.03712000000000004,5.000049991798719,-0.018275703619711994,-0.038134871226899514,0
929,0.03716000000000008,5.000378781950543,-0.029783347273691016,-0.04959800544277415,0
930,0.0371999999999999,5.000049991798719,-0.039975831521371616,-0.05974584585043097,0
931,0.03723999999999994,4.99972120164681,-0.046880417554202566,-0.06660565454115958,0
932,0.03727999999999998,5.000049991798719,-0.05181226468559495,-0.07149259172828593,0
933,0.03732000000000002,5.000378781950543,-0.053456213722917104,-0.07309149911915674,0
934,0.03736000000000006,5.000378781950543,-0.054113793336938706,-0.07370390628457352,0
935,0.0374000000000001,5.000049991798719,-0.05279863410837703,-0.07234344470532922,0
936,0.03743999999999992,5.000378781950543,-0.05049710545340523,-0.06999648469770664,0
937,0.03747999999999996,4.99972120164681,-0.04720920736386795,-0.06666302715368394,0
938,0.03752,5.000378781950543,-0.04293493982813261,-0.06234307296177605,0
939,0.03756000000000004,5.000707572102282,-0.03800309264438971,-0.05736541282032581,0
940,0.03760000000000008,4.99972120164681,-0.03142729635426868,-0.05074367817110992,0
941,0.037639999999999896,5.000049991798719,-0.024851500012672237,-0.04412181896916262,0
942,0.037679999999999936,5.000049991798719,-0.017618123977595282,-0.036842256472584656,0
943,0.037719999999999976,5.000049991798719,-0.009727168232258263,-0.02890499156466625,0
944,0.037760000000000016,4.99972120164681,-0.0047953208540382625,-0.02392671322280815,0
945,0.037800000000000056,4.999063621342738,0.0024380553525874815,-0.01664678515145407,0
946,0.037840000000000096,5.001036362253937,0.005397163818512657,-0.01364100481961028,0
947,0.037879999999999914,5.000707572102282,0.014932068945377922,-0.0040593087254596205,0
948,0.037919999999999954,4.999392411494816,0.016247228281592724,-0.0026972402203286894,0
949,0.037959999999999994,4.99972120164681,0.02085028597429857,0.001952843943284377,0
950,0.038000000000000034,5.001036362253937,0.024138184341410046,0.005287885183761498,0
951,0.038040000000000074,5.001693942556992,0.024138184341410046,0.005335143560168787,0
952,0.038080000000000114,5.000378781950543,0.022823024993048696,0.004067357191965937,0
953,0.03811999999999993,5.001693942556992,0.022494235156274286,0.0037860540399461406,0
954,0.03815999999999997,4.998406041038327,0.02019270630239349,0.001532124676404456,0
955,0.03820000000000001,5.001693942556992,0.01328811977796078,-0.005324750450962978,0
956,0.03824000000000005,5.000707572102282,0.010986590948902406,-0.007578456874926087,0
957,0.03828000000000009,5.000049991798719,0.0024380553525874815,-0.01607905995663972,0
958,0.03831999999999991,4.99972120164681,-0.007425639459330238,-0.025894713042792394,0
959,0.03835999999999995,4.999392411494816,-0.014330225759327644,-0.03275114930401202,0
960,0.03839999999999999,5.000049991798719,-0.024193920375685754,-0.042566586466529055,0
961,0.03844000000000003,5.000049991798719,-0.031756086169998185,-0.05008038828967576,0
962,0.03848000000000007,5.000049991798719,-0.039975831521371616,-0.05825166405007848,0
963,0.03852000000000011,5.000378781950543,-0.046551627744407784,-0.06477888595962972,0
964,0.03855999999999993,4.99972120164681,-0.05279863410837703,-0.07097721418465264,0
965,0.03859999999999997,5.000049991798719,-0.05542895256342596,-0.07355875157209885,0
966,0.03864000000000001,5.000049991798719,-0.06003200983978245,-0.0781129257487429,0
967,0.03868000000000005,5.000049991798719,-0.06167595886088427,-0.079707890534302,0
968,0.03872000000000009,5.000049991798719,-0.06167595886088427,-0.07965880605893128,0
969,0.038759999999999906,4.99972120164681,-0.06036079964426265,-0.07829446302282556,0
970,0.038799999999999946,5.000378781950543,-0.059045640425562415,-0.07693002153594575,0
971,0.038839999999999986,5.000049991798719,-0.05608653217589139,-0.07392153346451164,0
972,0.038880000000000026,4.99972120164681,-0.05279863410837703,-0.07058415891644682,0
973,0.038920000000000066,5.000049991798719,-0.04951073602790314,-0.06724668859110666,0
974,0.038960000000000106,5.000378781950543,-0.047537997173404054,-0.06522428262156355,0
975,0.038999999999999924,5.000049991798719,-0.0445788888829237,-0.06221541323965596,0
976,0.039039999999999964,5.000049991798719,-0.04161978058197445,-0.05920645076433778,0
977,0.039080000000000004,5.000049991798719,-0.04063341114600001,-0.05817013496413209,0
978,0.039120000000000044,5.000378781950543,-0.04063341114600001,-0.0581200973027452,0
979,0.039160000000000084,5.000707572102282,-0.04096220095812057,-0.05839875904864833,0
980,0.0391999999999999,5.000378781950543,-0.04161978058197445,-0.05900612109338854,0
981,0.03923999999999994,5.000049991798719,-0.04589404812443025,-0.0632300824353687,0
982,0.03927999999999998,5.000049991798719,-0.0498395258365333,-0.06712516621675779,0
983,0.03932000000000002,5.000378781950543,-0.05608653217589139,-0.07332169178586706,0
984,0.03936000000000006,5.000049991798719,-0.06200474866471477,-0.0791893415551802,0
985,0.0394000000000001,5.000707572102282,-0.06923812431607472,-0.08637206542760195,0
986,0.03943999999999992,5.000378781950543,-0.07712907950017713,-0.0942122846627213,0
987,0.03947999999999996,5.000378781950543,-0.08469124481434036,-0.10172363074677976,0
988,0.03952,5.000049991798719,-0.09389735901632983,-0.1108788433259964,0
989,0.03956000000000004,4.99972120164681,-0.10441863226392899,-0.12134913344612985,0
990,0.03960000000000008,5.000049991798719,-0.11296716667825839,-0.1298466041157873,0
991,0.0396399999999999,5.000378781950543,-0.12217328056301004,-0.13900157452564726,0
992,0.03967999999999994,5.000378781950543,-0.13039302501516953,-0.1471700966591719,0
993,0.03971999999999998,5.000707572102282,-0.14091429779271097,-0.15764006916029272,0
994,0.03976000000000002,5.000378781950543,-0.15143557043371902,-0.16810996445252224,0
995,0.03980000000000006,4.999392411494816,-0.15899773505985432,-0.17562067554241068,0
996,0.0398400000000001,4.99972120164681,-0.16853263818297903,-0.18510404982616196,0
997,0.039879999999999916,5.000049991798719,-0.17872512070673813,-0.19524492909120594,0
998,0.039919999999999956,5.000049991798719,-0.1882600235954478,-0.20472815518507687,0
999,0.039959999999999996,5.000378781950543,-0.19911008536481606,-0.21552646750612348,0
1000,0.040000000000000036,5.000378781950543,-0.2122616751899738,-0.22862623611153,0
1001,0.040040000000000076,4.999392411494816,-0.2240981058461004,-0.24041077465793237,0
1002,0.040080000000000116,5.000049991798719,-0.23823606445284673,-0.25449677114583136,0
1003,0.040119999999999933,5.000049991798719,-0.25303160225748084,-0.2692402777027295,0
1004,0.040159999999999973,5.000049991798719,-0.27045745753533396,-0.28661403348356573,0
1005,0.040200000000000014,5.000049991798719,-0.286896943289067,-0.30300135236997305,0
1006,0.040240000000000054,5.000378781950543,-0.3030076389893151,-0.3190598147109136,0
1007,0.040280000000000094,5.000378781950543,-0.3194471240507002,-0.33544700079868095,0
1008,0.04031999999999991,5.000049991798719,-0.33621539845039383,-0.3521629114874527,0
1009,0.04035999999999995,5.000049991798719,-0.3503533550110579,-0.36624844047622096,0
1010,0.04039999999999999,5.000049991798719,-0.36580647002071953,-0.38164906492865636,0
1011,0.04044000000000003,5.000378781950543,-0.3789580570144402,-0.39474809925476784,0
1012,0.04048000000000007,5.000049991798719,-0.39079448511259907,-0.4065319134491756,0
1013,0.04052000000000011,5.000049991798719,-0.3983566474110267,-0.4140414014812358,0
1014,0.04055999999999993,5.000378781950543,-0.4036172820084136,-0.41924930232243973,0
1015,0.04059999999999997,5.000707572102282,-0.4095354958862607,-0.4251147238263553,0
1016,0.04064000000000001,4.99972120164681,-0.4111794441773443,-0.42670582199708074,0
1017,0.04068000000000005,5.000378781950543,-0.4138097614355476,-0.4292832322590667,0
1018,0.04072000000000009,5.000049991798719,-0.4154537097172156,-0.430874217538461,0
1019,0.04075999999999991,5.000378781950543,-0.414138551092171,-0.42950604077411425,0
1020,0.04079999999999995,5.000707572102282,-0.413152182121866,-0.42846659939572196,0
1021,0.04083999999999999,5.000378781950543,-0.4115082338351266,-0.4267695252995609,0
1022,0.04088000000000003,5.000378781950543,-0.4088779165688141,-0.4240860296891411,0
1023,0.04092000000000007,5.000378781950543,-0.4069051786130019,-0.42206006172037447,0
1024,0.04096000000000011,5.000049991798719,-0.4046036509913078,-0.4197052532818969,0
1025,0.040999999999999925,5.000049991798719,-0.40197333370070065,-0.41702160523486553,0
1026,0.041039999999999965,5.000378781950543,-0.3983566474110267,-0.4133515391124758,0
1027,0.041080000000000005,5.000049991798719,-0.3957263300984811,-0.41066779375342377,0
1028,0.041120000000000045,5.000378781950543,-0.3937535921080175,-0.4086415803643064,0
1029,0.041160000000000085,5.000378781950543,-0.3914520644459223,-0.40628653081218713,0
1030,0.0411999999999999,5.000378781950543,-0.38816416777355045,-0.4029450666183218,0
1031,0.04123999999999994,5.000049991798719,-0.3852050607561185,-0.3999323473069421,0
1032,0.04127999999999998,4.99972120164681,-0.38224595372704717,-0.3969195840695889,0
1033,0.04132000000000002,5.000707572102282,-0.3792868466863466,-0.3939067777634891,0
1034,0.04136000000000006,4.99972120164681,-0.37534137061400663,-0.38990756022493744,0
1035,0.0414000000000001,5.000378781950543,-0.3707383151702016,-0.3852507219694923,0
1036,0.04143999999999992,5.000049991798719,-0.3671216287303932,-0.3815802122270697,0
1037,0.04147999999999996,4.99972120164681,-0.363833731951923,-0.3782384525085249,0
1038,0.04152,5.000049991798719,-0.3582443073957605,-0.3725951262273917,0
1039,0.04156000000000004,4.99972120164681,-0.3533124621649315,-0.3676093413383025,0
1040,0.04160000000000008,5.000049991798719,-0.34870940658726096,-0.3629523090197224,0
1041,0.0416399999999999,5.000049991798719,-0.3418048231685274,-0.35599371262709373,0
1042,0.04167999999999994,5.000049991798719,-0.33555781906909776,-0.34969266016946005,0
1043,0.04171999999999998,5.000049991798719,-0.3260229179767166,-0.3401036761822456,0
1044,0.04176000000000002,5.000049991798719,-0.31681680646450566,-0.3308434480852461,0
1045,0.04180000000000006,4.999392411494816,-0.3069531154360811,-0.3209256076277371,0
1046,0.0418400000000001,5.000707572102282,-0.2977470036955575,-0.3116653144584682,0
1047,0.04187999999999992,4.99972120164681,-0.28525299472936166,-0.29911709290746746,0
1048,0.04191999999999996,4.99972120164681,-0.27440293414794864,-0.2882127894277483,0
1049,0.04196,5.000049991798719,-0.2619089248061193,-0.27566450771561773,0
1050,0.04200000000000004,5.000378781950543,-0.25040128444594667,-0.2641025663535943,0
1051,0.04204000000000008,5.000049991798719,-0.23823606445284673,-0.2518830175664698,0
1052,0.042079999999999895,5.000378781950543,-0.22837237242836733,-0.24196496979408794,0
1053,0.042119999999999935,4.99972120164681,-0.2188374700207923,-0.23237568552193938,0
1054,0.042159999999999975,4.99972120164681,-0.20765861877594044,-0.22114242713195215,0
1055,0.042200000000000015,5.000378781950543,-0.1997676648612418,-0.21319704162655878,0
1056,0.042240000000000055,5.000049991798719,-0.19154792111690433,-0.204922842679853,0
1057,0.042280000000000095,5.000378781950543,-0.18497212606045715,-0.19829256964212452,0
1058,0.04231999999999991,5.000707572102282,-0.1767523821638599,-0.19001832581695882,0
1059,0.04235999999999995,5.000049991798719,-0.1721493255449364,-0.18536074815266135,0
1060,0.04239999999999999,5.000378781950543,-0.16820384842199382,-0.18136072969686817,0
1061,0.04244000000000003,5.000049991798719,-0.16590232009133205,-0.17900464057404628,0
1062,0.04248000000000007,5.000049991798719,-0.16590232009133205,-0.17895006114957315,0
1063,0.04252000000000011,5.000049991798719,-0.16688868937670803,-0.1798818332039798,0
1064,0.04255999999999993,5.000378781950543,-0.17083416650610883,-0.18377269612054303,0
1065,0.04259999999999997,4.99972120164681,-0.1760948026484882,-0.18897870189164687,0
1066,0.04264000000000001,4.99972120164681,-0.18365696704267448,-0.1964862205783431,0
1067,0.04268000000000005,5.000378781950543,-0.1912191313653681,-0.20399372467833998,0
1068,0.04272000000000009,5.000049991798719,-0.20009645460925096,-0.21281637400410292,0
1069,0.04275999999999991,4.99972120164681,-0.21259046493281109,-0.22525569753267033,0
1070,0.04279999999999995,4.999392411494816,-0.22278294689305583,-0.23539348063835813,0
1071,0.04283999999999999,5.000707572102282,-0.23363300819012922,-0.2461888318373685,0
1072,0.04288000000000003,4.99972120164681,-0.24612701798337294,-0.2586281211038419,0
1073,0.04292000000000007,5.000378781950543,-0.2573058686823713,-0.26975224166089407,0
1074,0.04296000000000011,5.000049991798719,-0.26848471922152833,-0.2808763532551839,0
1075,0.04299999999999993,5.000049991798719,-0.27966356960029554,-0.29200045669713254,0
1076,0.04303999999999997,5.000378781950543,-0.2901848403980115,-0.30246697337575396,0
1077,0.04308000000000001,4.99972120164681,-0.30136369046386896,-0.31359106294861394,0
1078,0.04312000000000005,4.99972120164681,-0.3112273815639322,-0.3233999879888384,0
1079,0.04316000000000009,5.000378781950543,-0.3197759137483405,-0.3318937493523082,0
1080,0.043199999999999905,4.999063621342738,-0.32963960461196057,-0.34170266543830274,0
1081,0.043239999999999945,4.99972120164681,-0.3375305572112864,-0.34953884010639164,0
1082,0.043279999999999985,5.000049991798719,-0.3454215097290076,-0.3573750123409933,0
1083,0.043320000000000025,4.99972120164681,-0.3519973034312994,-0.36389602420865663,0
1084,0.043360000000000065,4.999392411494816,-0.35857309707667584,-0.370417035266906,0
1085,0.043400000000000105,4.99972120164681,-0.364820100986964,-0.37660925663520695,0
1086,0.04343999999999992,4.99972120164681,-0.3713958945210345,-0.3831302684686874,0
1087,0.04347999999999996,4.999063621342738,-0.37567016028749,-0.38734975417081835,0
1088,0.04352,5.000378781950543,-0.3825747433975185,-0.39419955964625875,0
1089,0.04356000000000004,4.99972120164681,-0.38652021943197024,-0.39809026126792413,0
1090,0.04360000000000008,5.000049991798719,-0.3911232747793326,-0.4026385462149534,0
1091,0.0436399999999999,5.000049991798719,-0.3957263300984811,-0.40718683593545074,0
1092,0.04367999999999994,4.999392411494816,-0.3986854370744458,-0.41009118290224555,0
1093,0.04371999999999998,4.999392411494816,-0.4009869647143398,-0.4123379569088118,0
1094,0.04376000000000002,4.99972120164681,-0.4023021233625321,-0.4135983690844329,0
1095,0.04380000000000006,5.000378781950543,-0.40295970268576176,-0.4142012098793079,0
1096,0.0438400000000001,5.000049991798719,-0.4046036509913078,-0.41579042838271385,0
1097,0.04387999999999992,4.99972120164681,-0.4036172820084136,-0.4147493391044218,0
1098,0.04391999999999996,5.000378781950543,-0.40295970268576176,-0.4140370497721638,0
1099,0.04396,5.000049991798719,-0.4032884923471599,-0.414311140487311,0
1100,0.04400000000000004,4.999392411494816,-0.4039460716695229,-0.41491403270284777,0
1101,0.04404000000000008,4.99972120164681,-0.4032884923471599,-0.41420177888765086,0
1102,0.0440799999999999,5.000378781950543,-0.4039460716695229,-0.41480469710422974,0
1103,0.04411999999999994,5.000049991798719,-0.4039460716695229,-0.4147500501570347,0
1104,0.04415999999999998,4.99972120164681,-0.4049324406519835,-0.41568178712090353,0
1105,0.04420000000000002,5.000378781950543,-0.40559001997290123,-0.41628475012031374,0
1106,0.04424000000000006,5.000049991798719,-0.40723396827266556,-0.4178740985625945,0
1107,0.0442800000000001,5.000707572102282,-0.4088779165688141,-0.41946346423067477,0
1108,0.044319999999999915,5.001036362253937,-0.40986428554476706,-0.42039526857180864,0
1109,0.044359999999999955,4.999063621342738,-0.41249460280760475,-0.422971039955345,0
1110,0.044399999999999995,5.000049991798719,-0.4147961304049833,-0.4252180411896361,0
1111,0.044440000000000035,5.000049991798719,-0.4138097614355476,-0.42417716613244216,0
1112,0.044480000000000075,4.99972120164681,-0.41512492006117196,-0.42543783970316496,0
1113,0.044520000000000115,5.001036362253937,-0.41512492006117196,-0.4253833764370508,0
1114,0.04455999999999993,4.999063621342738,-0.4167688683399404,-0.4269728839928195,0
1115,0.04459999999999997,4.999392411494816,-0.41644007868447674,-0.42658967691018546,0
1116,0.04464000000000001,5.000707572102282,-0.4157824993731143,-0.4258777042185769,0
1117,0.04468000000000005,5.000049991798719,-0.41512492006117196,-0.4251657563227804,0
1118,0.04472000000000009,5.001365152405508,-0.41446734074864966,-0.4244538339706281,0
1119,0.04475999999999991,5.000378781950543,-0.40822033725078877,-0.4181525137235511,0
1120,0.04479999999999995,5.000378781950543,-0.4069051786130019,-0.4167830653715011,0
1121,0.04483999999999999,5.000049991798719,-0.4023021233625321,-0.4121257481846016,0
1122,0.04488000000000003,5.000378781950543,-0.3967126990917672,-0.4064820904964537,0
1123,0.04492000000000007,5.000707572102282,-0.3921096437786695,-0.4018248310245575,0
1124,0.04496000000000011,4.99972120164681,-0.385533850425297,-0.39519486350882677,0
1125,0.04499999999999993,5.000707572102282,-0.3789580570144402,-0.38856492666821796,0
1126,0.04503999999999997,5.000049991798719,-0.3707383151702016,-0.38029107286130176,0
1127,0.04508000000000001,4.99972120164681,-0.3628473629155968,-0.3723460408438563,0
1128,0.04512000000000005,5.000049991798719,-0.35364125184798373,-0.3630858829442891,0
1129,0.04516000000000009,5.000049991798719,-0.34476393035565245,-0.3541545482802195,0
1130,0.04519999999999991,5.000049991798719,-0.33457144999609184,-0.34390808913673804,0
1131,0.04523999999999995,4.999392411494816,-0.32339260041308077,-0.33267529588349043,0
1132,0.04527999999999999,5.000378781950543,-0.31287133006832074,-0.32210011770630326,0
1133,0.04532000000000003,5.000049991798719,-0.3020212698744679,-0.31119618624020945,0
1134,0.04536000000000007,5.000049991798719,-0.2901848403980115,-0.299305922772319,0
1135,0.04540000000000011,5.000049991798719,-0.27933477988556743,-0.2884020662681054,0
1136,0.045439999999999925,4.99972120164681,-0.2688135089408429,-0.27782703804836234,0
1137,0.045479999999999965,5.000378781950543,-0.2573058686823713,-0.26626567994693184,0
1138,0.045520000000000005,5.000049991798719,-0.24711338716911185,-0.25601952073629564,0
1139,0.045560000000000045,5.000378781950543,-0.23790727472068857,-0.2467597714478078,0
1140,0.045600000000000085,5.000707572102282,-0.2270572134824429,-0.23585611493673997,0
1141,0.0456399999999999,5.000049991798719,-0.21817989054016812,-0.22692523899700842,0
1142,0.04567999999999994,5.000049991798719,-0.21193288544700017,-0.22062472388805765,0
1143,0.04571999999999998,4.99972120164681,-0.20502830081307927,-0.21366667292451524,0
1144,0.04576000000000002,5.000378781950543,-0.19845250586784702,-0.20703745603848195,0
1145,0.04580000000000006,5.000378781950543,-0.19319186987255288,-0.20172344319203095,0
1146,0.0458400000000001,5.000049991798719,-0.18858881334820277,-0.1970670556051497,0
1147,0.04587999999999992,4.99972120164681,-0.18464333630621427,-0.19306829398638828,0
1148,0.04591999999999996,5.000707572102282,-0.18168422851194627,-0.19005594879638205,0
1149,0.04596,5.000378781950543,-0.18004027973262504,-0.18835881049577086,0
1150,0.04600000000000004,5.000707572102282,-0.18004027973262504,-0.18830566954047276,0
1151,0.04604000000000008,5.000049991798719,-0.17938270021995156,-0.18759499832815985,0
1152,0.0460799999999999,5.000049991798719,-0.18004027973262504,-0.18819953608463583,0
1153,0.04611999999999994,5.000378781950543,-0.17971148997635578,-0.18781775520150348,0
1154,0.04615999999999998,4.999063621342738,-0.18365696704267448,-0.19171029245428833,0
1155,0.04620000000000002,5.000378781950543,-0.18562970556853736,-0.19363014316203742,0
1156,0.04624000000000006,5.000378781950543,-0.18924639285330647,-0.197193995304293,0
1157,0.0462800000000001,5.001036362253937,-0.19286308012169417,-0.2007579007840304,0
1158,0.04631999999999992,5.000707572102282,-0.19615097762417932,-0.20399307052806753,0
1159,0.04635999999999996,5.002022732708393,-0.20338435208186884,-0.21117377193192,0
1160,0.0464,5.001693942556992,-0.20371314182838302,-0.21144994400167982,0
1161,0.04644000000000004,5.001036362253937,-0.20996014698629556,-0.21764438753044812,0
1162,0.04648000000000008,5.002351522859708,-0.21489199312885277,-0.22252372876004733,0
1163,0.046519999999999895,4.998077250885994,-0.2185086802805486,-0.22608796838158962,0
1164,0.046559999999999935,4.999392411494816,-0.22311173663152228,-0.2306386352498682,0
1165,0.046599999999999975,4.999392411494816,-0.2277147929556791,-0.2351893608014716,0
1166,0.046640000000000015,4.99972120164681,-0.23067390057845844,-0.2380961970225452,0
1167,0.046680000000000055,4.998077250885994,-0.235276956858476,-0.24264704193042688,0
1168,0.046720000000000095,4.999392411494816,-0.23692090552338935,-0.24423883990950596,0
1169,0.04675999999999991,5.003009103162085,-0.23922243364849655,-0.2464882786898155,0
1170,0.04679999999999995,5.000378781950543,-0.23988001311157553,-0.24709383080186542,0
1171,0.04683999999999999,5.000378781950543,-0.24053759257410445,-0.24769944555785717,0
1172,0.04688000000000003,5.000049991798719,-0.24185275149751145,-0.24896270306792692,0
1173,0.04692000000000007,5.000378781950543,-0.24218154122801916,-0.24923965532498482,0
1174,0.04696000000000011,5.000378781950543,-0.2411951720360831,-0.24820151324414674,0
1175,0.04699999999999993,5.000049991798719,-0.2402088028429088,-0.24716343638924532,0
1176,0.04703999999999997,5.000049991798719,-0.23889364391675078,-0.24579663566912266,0
1177,0.04708000000000001,5.000378781950543,-0.23790727472068857,-0.2447586911854,0
1178,0.04712000000000005,5.000049991798719,-0.235276956858476,-0.24207686517832122,0
1179,0.04716000000000009,5.000378781950543,-0.23297542872182958,-0.23972389667403443,0
1180,0.04719999999999991,5.000378781950543,-0.23198905951835075,-0.23868615551250807,0
1181,0.04723999999999995,5.000707572102282,-0.22902995190050734,-0.23567574497650656,0
1182,0.04727999999999999,5.000707572102282,-0.2260708442715611,-0.23266540409751102,0
1183,0.04732000000000003,5.000378781950543,-0.22311173663152228,-0.22965513350166836,0
1184,0.04736000000000007,5.000049991798719,-0.2201526289804009,-0.22664493381303671,0
1185,0.04740000000000011,5.000049991798719,-0.21785110079965114,-0.22429238513502434,0
1186,0.04743999999999993,4.99972120164681,-0.21423441364495155,-0.22062474964316384,0
1187,0.04747999999999997,5.000378781950543,-0.21193288544700017,-0.21827234588590175,0
1188,0.04752000000000001,4.99972120164681,-0.20765861877594044,-0.21394727704901842,0
1189,0.04756000000000005,5.000049991798719,-0.2053570905589132,-0.21159502067317448,0
1190,0.04760000000000009,4.99972120164681,-0.20239798284151073,-0.20858525941535863,0
1191,0.047639999999999905,5.000049991798719,-0.20009645460925096,-0.20623315287035607,0
1192,0.047679999999999945,5.000378781950543,-0.19647976737368184,-0.20256596315684688,0
1193,0.047719999999999985,4.99972120164681,-0.19417823912431548,-0.20021400886933463,0
1194,0.047760000000000025,5.000049991798719,-0.19187671086830504,-0.19786213161781752,0
1195,0.047800000000000065,5.000707572102282,-0.19023276210994672,-0.1961679115072842,0
1196,0.047840000000000105,5.000378781950543,-0.1895751826056553,-0.19546013889268357,0
1197,0.04787999999999992,5.000378781950543,-0.18793123384255755,-0.19376607585751277,0
1198,0.04791999999999996,4.99972120164681,-0.18760244408953197,-0.19338725126485198,0
1199,0.04796,5.000049991798719,-0.18760244408953197,-0.19333729644968245,0
1200,0.04800000000000004,5.000707572102282,-0.18793123384255755,-0.1936162120018527,0
1201,0.04804000000000008,4.99972120164681,-0.18760244408953197,-0.1932376292499499,0
1202,0.0480799999999999,4.99972120164681,-0.18858881334820277,-0.19417428729719557,0
1203,0.04811999999999994,5.000378781950543,-0.1882600235954478,-0.19379586870374643,0
1204,0.04815999999999998,4.99972120164681,-0.1895751826056553,-0.19506148182506985,0
1205,0.04820000000000002,5.000378781950543,-0.1912191313653681,-0.1966559682265828,0
1206,0.04824000000000006,5.000378781950543,-0.19286308012169417,-0.19825053873205786,0
1207,0.0482800000000001,5.000378781950543,-0.19417823912431548,-0.19951640416562683,0
1208,0.04831999999999992,4.99972120164681,-0.1945070288746319,-0.19979598560091974,0
1209,0.04835999999999996,5.000378781950543,-0.1958221878745412,-0.20106202210983978,0
1210,0.0484,5.000049991798719,-0.19845250586784702,-0.20364330400396677,0
1211,0.04844000000000004,5.000049991798719,-0.1997676648612418,-0.20490951385553482,0
1212,0.04848000000000008,4.99972120164681,-0.2027267725884327,-0.20781975996155322,0
1213,0.0485199999999999,5.000049991798719,-0.20502830081307927,-0.2100725146467393,0
1214,0.04855999999999994,5.000378781950543,-0.20831619826529435,-0.21331172720001437,0
1215,0.04859999999999998,5.000378781950543,-0.21193288544700017,-0.2168798186798551,0
1216,0.04864000000000002,4.999392411494816,-0.21522078287059865,-0.2201192101529595,0
1217,0.04868000000000006,4.99972120164681,-0.21916625976089943,-0.2240162713961703,0
1218,0.0487200000000001,4.99972120164681,-0.22344052636985184,-0.2282422132112022,0
1219,0.048759999999999915,5.000378781950543,-0.2277147929556791,-0.2324682464037715,0
1220,0.048799999999999955,5.000049991798719,-0.23330421845604804,-0.23800953045676213,0
1221,0.048839999999999995,5.000707572102282,-0.2385648541848675,-0.2432221172270191,0
1222,0.048880000000000035,5.000049991798719,-0.24382548987849312,-0.24843479699154866,0
1223,0.048920000000000075,5.000049991798719,-0.2500724947188839,-0.2546339394706695,0
1224,0.048960000000000115,5.000049991798719,-0.2566482892339084,-0.26116196572831474,0
1225,0.04899999999999993,5.000049991798719,-0.26289529397196426,-0.2673612968466461,0
1226,0.04903999999999997,5.000049991798719,-0.2688135089408429,-0.27323193336491425,0
1227,0.04908000000000001,5.000378781950543,-0.27571809301437356,-0.28008903468609825,0
1228,0.04912000000000005,5.000049991798719,-0.28229388731310745,-0.2866174424575855,0
1229,0.04916000000000009,5.000707572102282,-0.28886968155610887,-0.29314594692295853,0
1230,0.04919999999999991,5.000049991798719,-0.2961030551589063,-0.30033212801994136,0
1231,0.04923999999999995,5.000049991798719,-0.3023500595795572,-0.30653203772646004,0
1232,0.04927999999999999,5.000049991798719,-0.3089258536518853,-0.31306083539387597,0
1233,0.04932000000000003,5.000049991798719,-0.31418648886930034,-0.31827457303080164,0
1234,0.04936000000000007,5.000049991798719,-0.3207622828404161,-0.3248035687587151,0
1235,0.04940000000000011,4.99972120164681,-0.3253653385866545,-0.3293599261095602,0
1236,0.04943999999999993,4.99972120164681,-0.33128355307687346,-0.3352315425603702,0
1237,0.04947999999999997,4.99972120164681,-0.33687297783112347,-0.34077447013702056,0
1238,0.04952000000000001,5.000049991798719,-0.34213361285655336,-0.3459887093501308,0
1239,0.04956000000000005,5.000049991798719,-0.3483806169020751,-0.35218941944972537,0
1240,0.04960000000000009,5.000378781950543,-0.35364125184798373,-0.3574038628148493,0
1241,0.049639999999999906,5.000049991798719,-0.3589018867574486,-0.3626184090050555,0
1242,0.049679999999999946,5.000049991798719,-0.364820100986964,-0.3684906378708511,0
1243,0.049719999999999986,4.99972120164681,-0.3713958945210345,-0.3750205498883789,0
1244,0.049760000000000026,5.000378781950543,-0.3769853189799903,-0.38056419716722845,0
1245,0.049800000000000066,4.99972120164681,-0.3845474814173304,-0.3880806872477758,0
1246,0.049840000000000106,4.99972120164681,-0.39178085411236785,-0.3952684928938251,0
1247,0.049879999999999924,5.000049991798719,-0.39934301640085146,-0.4027851939232259,0
1248,0.049919999999999964,4.99972120164681,-0.4069051786130019,-0.41030200114590515,0
1249,0.049960000000000004,4.99972120164681,-0.41611128902886796,-0.41946286331921967,0
1250,0.050000000000000044,5.000378781950543,-0.42498860967935936,-0.4282950429489852,0
1251,0.050040000000000084,5.000378781950543,-0.43287956127971794,-0.4361409612229441,0
1252,0.0500799999999999,5.000378781950543,-0.4417568817297838,-0.44497335651102826,0
1253,0.05011999999999994,4.99972120164681,-0.45030541243289357,-0.45347707068425325,0
1254,0.05015999999999998,5.000049991798719,-0.4581963637632791,-0.46132331458211323,0
1255,0.05020000000000002,5.000378781950543,-0.4674024735418494,-0.47048482648835976,0
1256,0.05024000000000006,5.000049991798719,-0.4736494765401802,-0.4766873416349886,0
1257,0.0502800000000001,5.000378781950543,-0.48022526911249497,-0.48321875683421706,0
1258,0.05031999999999992,5.000378781950543,-0.4848283238779627,-0.4877775451607798,0
1259,0.05035999999999996,4.99972120164681,-0.48844500974477834,-0.49135007597600533,0
1260,0.0504,5.000049991798719,-0.49041774748276334,-0.4932787705004135,0
1261,0.05044000000000004,4.999392411494816,-0.4917329059717904,-0.49454999806213634,0
1262,0.05048000000000008,4.99972120164681,-0.4897601682373608,-0.4925334421324919,0
1263,0.0505199999999999,5.000378781950543,-0.4864722720014625,-0.48920184087683916,0
1264,0.05055999999999994,5.000049991798719,-0.48022526911249497,-0.48291124658449996,0
1265,0.05059999999999998,5.000049991798719,-0.47134794912593037,-0.47399044924941736,0
1266,0.05064000000000002,5.000049991798719,-0.46148426012599586,-0.46408339739183424,0
1267,0.05068000000000006,4.99972120164681,-0.44866146422843867,-0.45121735356105636,0
1268,0.0507200000000001,4.999063621342738,-0.4348522991667003,-0.4373650559216232,0
1269,0.050759999999999916,5.000049991798719,-0.41939918557842726,-0.4218689255398157,0
1270,0.050799999999999956,5.000049991798719,-0.4013157543766046,-0.40374259375478583,0
1271,0.050839999999999996,5.000049991798719,-0.3829035330678462,-0.3852875884968436,0
1272,0.050880000000000036,5.000378781950543,-0.3628473629155968,-0.36518875145065677,0
1273,0.050920000000000076,5.000378781950543,-0.3424624025444375,-0.3447612416595521,0
1274,0.050960000000000116,5.000378781950543,-0.3210910725374927,-0.3233474801229199,0
1275,0.050999999999999934,4.99972120164681,-0.3010349007583592,-0.3032489951181395,0
1276,0.051039999999999974,5.000049991798719,-0.2813075181718476,-0.28347941802131743,0
1277,0.051080000000000014,5.000049991798719,-0.25993618647069117,-0.2620660109339939,0
1278,0.051120000000000054,5.000378781950543,-0.24053759257410445,-0.2426254611816982,0
1279,0.051160000000000094,5.000378781950543,-0.2208102084593851,-0.22285624114554725,0
1280,0.05119999999999991,4.99972120164681,-0.20502830081307927,-0.20703261791340816,0
1281,0.05123999999999995,5.000378781950543,-0.18760244408953197,-0.1895651663384459,0
1282,0.05127999999999999,5.000049991798719,-0.1737932743404409,-0.175714522868674,0
1283,0.05132000000000003,5.000378781950543,-0.16162805317406415,-0.16350794950615954,0
1284,0.05136000000000007,4.99972120164681,-0.14979162159258003,-0.15163028764438025,0
1285,0.05140000000000011,5.000049991798719,-0.14025671824810987,-0.14205427632424567,0
1286,0.05143999999999993,5.000049991798719,-0.13203697389564184,-0.1337935466870176,0
1287,0.05147999999999997,5.000049991798719,-0.1251323885753416,-0.12684809915661843,0
1288,0.05152000000000001,5.000378781950543,-0.12085812144297166,-0.12253309327004847,0
1289,0.05156000000000005,4.99972120164681,-0.11658385428821218,-0.11821821119570353,0
1290,0.05160000000000009,5.000378781950543,-0.11428232581100171,-0.11587619200971416,0
1291,0.05163999999999991,5.000707572102282,-0.11296716667825839,-0.11452066675266492,0
1292,0.05167999999999995,5.000049991798719,-0.1116520075434007,-0.11316526644911279,0
1293,0.05171999999999999,5.000378781950543,-0.1106656381908704,-0.11213878125210797,0
1294,0.05176000000000003,4.99972120164681,-0.1100080586218566,-0.11144121152891556,0
1295,0.05180000000000007,5.000378781950543,-0.10902168926734575,-0.11041497807406342,0
1296,0.05184000000000011,5.000049991798719,-0.10836410969701198,-0.10971766081822987,0
1297,0.051879999999999926,5.000049991798719,-0.10737774034052165,-0.10869168054954614,0
1298,0.051919999999999966,5.000378781950543,-0.10540500162397977,-0.10667945805004114,0
1299,0.051960000000000006,4.999392411494816,-0.10540500162397977,-0.10664010174968885,0
1300,0.052000000000000046,4.99972120164681,-0.10376105268990284,-0.10495692434870574,0
1301,0.052040000000000086,5.000049991798719,-0.10145952417666172,-0.10261629555029311,0
1302,0.052079999999999904,5.000707572102282,-0.09817162628941313,-0.09928942590534778,0
1303,0.052119999999999944,5.000378781950543,-0.09521251817964406,-0.09629147490854623,0
1304,0.052159999999999984,4.99972120164681,-0.09159583047547391,-0.09263607352864495,0
1305,0.052200000000000024,4.99972120164681,-0.08995188151378213,-0.09095354044060644,0
1306,0.052240000000000064,4.999063621342738,-0.08600640399234578,-0.08696960867773545,0
1307,0.052280000000000104,5.000378781950543,-0.08370487542946127,-0.08462975609129841,0
1308,0.05231999999999992,5.000378781950543,-0.07943060808137585,-0.08031729526795373,0
1309,0.05235999999999996,4.99972120164681,-0.07647149990437309,-0.0773201244918359,0
1310,0.0524,5.000049991798719,-0.07318360191751903,-0.07399429510729982,0
1311,0.05244000000000004,5.000049991798719,-0.07121086311914367,-0.07198375643540117,0
1312,0.05248000000000008,5.000378781950543,-0.06956691411691203,-0.0703021394039654,0
1313,0.0525199999999999,5.000049991798719,-0.06726538550831525,-0.06796307492807763,0
1314,0.05255999999999994,4.99972120164681,-0.06562143649826817,-0.06628172252767894,0
1315,0.05259999999999998,5.000378781950543,-0.06430627728788789,-0.06492929271634362,0
1316,0.05264000000000002,5.000049991798719,-0.0629911180754263,-0.06357699600220995,0
1317,0.05268000000000006,5.000049991798719,-0.06101837925283336,-0.06156725308454314,0
1318,0.0527200000000001,4.99972120164681,-0.06101837925283336,-0.06153038270080946,0
1319,0.05275999999999992,5.000049991798719,-0.059045640425562415,-0.05952090750331335,0
1320,0.05279999999999996,4.99972120164681,-0.059703220035172325,-0.06014188505580054,0
1321,0.05284,5.000378781950543,-0.059045640425562415,-0.05944783799918907,0
1322,0.05288000000000004,5.000378781950543,-0.05838806081543309,-0.05875392584662198,0
1323,0.05292000000000008,4.99972120164681,-0.059045640425562415,-0.05937530811074343,0
1324,0.052959999999999896,5.000378781950543,-0.057730481204784426,-0.0580240870296761,0
1325,0.052999999999999936,4.99972120164681,-0.05805927101017365,-0.05831695074720511,0
1326,0.053039999999999976,5.000049991798719,-0.058716850620562686,-0.0589387403262947,0
1327,0.053080000000000016,5.000378781950543,-0.059703220035172325,-0.05988945604771717,0
1328,0.053120000000000056,5.000378781950543,-0.060689589448612954,-0.06084030838505383,0
1329,0.053160000000000096,5.000049991798719,-0.06200474866471477,-0.06212008741852437,0
1330,0.053199999999999914,4.99972120164681,-0.0626623282719858,-0.06274242401044366,0
1331,0.053239999999999954,4.99972120164681,-0.06331990787873677,-0.06336489804034534,0
1332,0.053279999999999994,4.999392411494816,-0.06331990787873677,-0.06332993017063748,0
1333,0.053320000000000034,5.000378781950543,-0.06430627728788789,-0.06428146968327692,0
1334,0.053360000000000074,4.99972120164681,-0.06529264669586828,-0.06523314743141134,0
1335,0.053400000000000114,5.000378781950543,-0.06529264669586828,-0.06519859426911567,0
1336,0.05343999999999993,5.000049991798719,-0.06562143649826817,-0.06549296966506857,0
1337,0.05347999999999997,5.000378781950543,-0.06726538550831525,-0.06710264328022914,0
1338,0.05352000000000001,4.999063621342738,-0.06627901610267752,-0.0660821377443897,0
1339,0.05356000000000005,5.000049991798719,-0.06595022630053791,-0.06571935132727003,0
1340,0.05360000000000009,4.99972120164681,-0.06627901610267752,-0.06601428427759976,0
1341,0.05363999999999991,5.000049991798719,-0.06595022630053791,-0.06565177763218122,0
1342,0.05367999999999995,5.000049991798719,-0.06693659570656622,-0.06660457044623364,0
1343,0.05371999999999999,4.99972120164681,-0.06627901610267752,-0.06591355474185562,0
1344,0.05376000000000003,5.000049991798719,-0.06562143649826817,-0.06522267976603846,0
1345,0.05380000000000007,5.000049991798719,-0.06562143649826817,-0.06518952535871808,0
1346,0.05384000000000011,5.000049991798719,-0.06430627728788789,-0.06384135293752224,0
1347,0.05387999999999993,4.99972120164681,-0.06430627728788789,-0.06380848115304083,0
1348,0.05391999999999997,4.99972120164681,-0.06397748748496758,-0.06344696121921506,0
1349,0.05396000000000001,4.99972120164681,-0.06331990787873677,-0.06275679336030898,0
1350,0.05400000000000005,4.999392411494816,-0.0629911180754263,-0.06239555740462044,0
1351,0.05404000000000009,5.000378781950543,-0.06167595886088427,-0.06104809435747727,0
1352,0.054079999999999906,5.000378781950543,-0.060689589448612954,-0.0600295636492737,0
1353,0.054119999999999946,5.000049991798719,-0.06036079964426265,-0.05966875529996446,0
1354,0.054159999999999986,5.000049991798719,-0.059703220035172325,-0.058979300108605914,0
1355,0.054200000000000026,5.000049991798719,-0.058716850620562686,-0.05796119828354984,0
1356,0.054240000000000066,5.000378781950543,-0.05838806081543309,-0.05760081944634077,0
1357,0.054280000000000106,5.000378781950543,-0.05707290159361651,-0.056254214774771216,0
1358,0.054319999999999924,5.000049991798719,-0.05805927101017365,-0.057209282525275906,0
1359,0.054359999999999964,4.999392411494816,-0.05510016275699865,-0.05421901658853806,0
1360,0.054400000000000004,5.000707572102282,-0.05510016275699865,-0.054188003083668945,0
1361,0.054440000000000044,5.000378781950543,-0.056415321981929514,-0.055472293176044185,0
1362,0.054480000000000084,5.000049991798719,-0.05279863410837703,-0.05182488073328556,0
1363,0.0545199999999999,4.999392411494816,-0.05312742391571186,-0.05212309072321619,0
1364,0.05455999999999994,5.000049991798719,-0.05279863410837703,-0.051763866036147965,0
1365,0.05459999999999998,5.001365152405508,-0.050168315645034,-0.04910325781402808,0
1366,0.05464000000000002,5.002022732708393,-0.05082589526164695,-0.04973069297352434,0
1367,0.05468000000000006,5.000378781950543,-0.0498395258365333,-0.048714324571076384,0
1368,0.0547200000000001,5.000378781950543,-0.050168315645034,-0.049013261057566704,0
1369,0.05475999999999992,4.997748460733576,-0.04852436660123595,-0.04733960452004382,0
1370,0.05479999999999996,4.997419670581074,-0.0498395258365333,-0.04862520226028433,0
1371,0.05484,5.001036362253937,-0.04786678698281073,-0.0466230480779769,0
1372,0.05488000000000004,5.000049991798719,-0.048853156410254436,-0.047580148508533704,0
1373,0.05492000000000008,5.001365152405508,-0.044907678693494255,-0.04360554828923335,0
1374,0.0549599999999999,5.001693942556992,-0.046551627744407784,-0.04522052149202532,0
1375,0.05499999999999994,5.000378781950543,-0.04720920736386795,-0.0458492720752785,0
1376,0.05503999999999998,4.998406041038327,-0.04589404812443025,-0.044505430766469456,0
1377,0.05508000000000002,5.002022732708393,-0.04720920736386795,-0.045792055055718206,0
1378,0.05512000000000006,4.998734831190575,-0.04425009907222392,-0.04280455908284142,0
1379,0.0551600000000001,5.000049991798719,-0.04523646850393555,-0.04376268824947882,0
1380,0.055199999999999916,5.000049991798719,-0.04523646850393555,-0.0437345955451951,0
1381,0.055239999999999956,4.99972120164681,-0.04523646850393555,-0.04370665054376505,0
1382,0.055279999999999996,5.000378781950543,-0.04425009907222392,-0.042692483952972204,0
1383,0.055320000000000036,5.000049991798719,-0.04523646850393555,-0.04365120420488039,0
1384,0.055360000000000076,5.000049991798719,-0.04425009907222392,-0.0426373337070069,0
1385,0.055400000000000116,5.000049991798719,-0.04392130926139491,-0.042281191075457525,0
1386,0.055439999999999934,5.000049991798719,-0.04392130926139491,-0.042253986629415985,0
1387,0.055479999999999974,5.000378781950543,-0.04326372963934923,-0.04156935106268378,0
1388,0.055520000000000014,5.000378781950543,-0.04425009907222392,-0.04252881317634377,0
1389,0.055560000000000054,4.999392411494816,-0.042277360205311795,-0.04052931573724833,0
1390,0.055600000000000094,4.99972120164681,-0.04260615001678679,-0.04083149584257523,0
1391,0.05563999999999991,5.000378781950543,-0.042277360205311795,-0.04047624530743782,0
1392,0.05567999999999995,4.99972120164681,-0.04063341114600001,-0.038805984620847944,0
1393,0.05571999999999999,5.000049991798719,-0.04161978058197445,-0.03976619163727768,0
1394,0.05576000000000003,5.000049991798719,-0.039975831521371616,-0.03809622947366459,0
1395,0.05580000000000007,4.999063621342738,-0.04063341114600001,-0.03872794541807173,0
1396,0.05584000000000011,4.99972120164681,-0.04063341114600001,-0.03870223126434963,0
