,seconds,Trig,EMG_amplitude,EMG_amplitude_filter,peaks
0,0.0,4.99972120164681,0.030713981113518377,-0.02556170112712506,0
1,4.0000000000040004e-05,5.000378781950543,0.028412452237539368,-0.027835816793654742,0
2,8.000000000008001e-05,4.99972120164681,0.025782133529704057,-0.030438575941055073,0
3,0.00011999999999989797,4.99972120164681,0.025124553854007567,-0.031068449642808246,0
4,0.00015999999999993797,4.999392411494816,0.022494235156274286,-0.03367091589163913,0
5,0.00019999999999997797,5.000049991798719,0.021507865646709548,-0.03462928641696586,0
6,0.00024000000000001798,5.000378781950543,0.01953512663099438,-0.03657387985380717,0
7,0.000280000000000058,5.000378781950543,0.01821996728971463,-0.03786074696335544,0
8,0.000320000000000098,5.000049991798719,0.017233597785083862,-0.03881867752625587,0
9,0.00035999999999991594,5.000378781950543,0.016904807950460177,-0.039118881653091755,0
10,0.00039999999999995595,5.000378781950543,0.016247228281592724,-0.039747728793140195,0
11,0.00043999999999999595,5.000378781950543,0.015918438447348998,-0.040047639223646916,0
12,0.00048000000000003595,5.000378781950543,0.015589648613231935,-0.0403474027263112,0
13,0.000520000000000076,5.000378781950543,0.014932068945377922,-0.04097580908328991,0
14,0.0005599999999998939,5.000049991798719,0.014932068945377922,-0.040946488742378453,0
15,0.0005999999999999339,5.000378781950543,0.014603279111640999,-0.04124581115564935,0
16,0.0006399999999999739,5.000707572102282,0.013945699444547363,-0.04187377627430122,0
17,0.0006800000000000139,5.000707572102282,0.014932068945377922,-0.04085764504973123,0
18,0.0007200000000000539,5.000378781950543,0.014603279111640999,-0.04115652593821038,0
19,0.0007600000000000939,5.000378781950543,0.015260858779241576,-0.04046889005871625,0
20,0.0007999999999999119,4.99972120164681,0.015589648613231935,-0.040109896702184386,0
21,0.0008399999999999519,5.000378781950543,0.014932068945377922,-0.040737125493944114,0
22,0.0008799999999999919,5.000378781950543,0.015260858779241576,-0.04037783738863792,0
23,0.0009200000000000319,5.000049991798719,0.014603279111640999,-0.0410047713487636,0
24,0.0009600000000000719,5.000049991798719,0.014603279111640999,-0.04097397816568568,0
25,0.001000000000000112,4.99972120164681,0.015918438447348998,-0.03962787813284148,0
26,0.0010399999999999299,4.99972120164681,0.016576018115963126,-0.03893921021569488,0
27,0.0010799999999999699,5.000049991798719,0.016904807950460177,-0.03857918454505037,0
28,0.0011200000000000099,5.000049991798719,0.015918438447348998,-0.03953417058930153,0
29,0.0011600000000000499,5.000049991798719,0.016904807950460177,-0.038516269970643356,0
30,0.0012000000000000899,5.001036362253937,0.016576018115963126,-0.03881338100005713,0
31,0.0012399999999999078,5.000378781950543,0.01953512663099438,-0.03582244595868407,0
32,0.0012799999999999478,5.001693942556992,0.019206336795484613,-0.036119261516000284,0
33,0.0013199999999999878,5.001365152405508,0.018877546960101396,-0.036415929291875926,0
34,0.0013600000000000279,4.99972120164681,0.020521496138282788,-0.03473971024454357,0
35,0.0014000000000000679,5.001365152405508,0.020521496138282788,-0.03470729253855458,0
36,0.0014400000000001079,4.999392411494816,0.02085028597429857,-0.03434593713365375,0
37,0.0014799999999999258,4.999063621342738,0.02085028597429857,-0.03431322367695313,0
38,0.0015199999999999658,5.001036362253937,0.021836655483104705,-0.033293992799851686,0
39,0.0015600000000000058,4.999063621342738,0.02019270630239349,-0.03490493267803607,0
40,0.0016000000000000458,5.001365152405508,0.024466974178816228,-0.030597507543362344,0
41,0.0016400000000000858,5.001036362253937,0.02216544531962629,-0.032865731168230584,0
42,0.0016799999999999038,5.000049991798719,0.024466974178816228,-0.030530749079449616,0
43,0.0017199999999999438,5.000378781950543,0.024138184341410046,-0.030825937673946546,0
44,0.0017599999999999838,5.000049991798719,0.025124553854007567,-0.029805818888224256,0
45,0.0018000000000000238,5.000707572102282,0.023809394504130166,-0.031087080919017476,0
46,0.0018400000000000638,5.000378781950543,0.025124553854007567,-0.029737876189507795,0
47,0.0018800000000001038,5.000049991798719,0.025782133529704057,-0.029046103060199245,0
48,0.0019199999999999218,5.000049991798719,0.026110923367741706,-0.028682971682296853,0
49,0.0019599999999999618,5.000049991798719,0.027754872559823354,-0.02700453285298534,0
50,0.0020000000000000018,5.000049991798719,0.027426082721154613,-0.027298684947108878,0
51,0.0020400000000000418,5.000049991798719,0.02676850304419573,-0.02792147876342091,0
52,0.002080000000000082,5.000378781950543,0.027426082721154613,-0.027228965102092897,0
53,0.0021199999999998997,5.000049991798719,0.027754872559823354,-0.026865093148879596,0
54,0.0021599999999999397,5.000707572102282,0.027754872559823354,-0.026829862898875612,0
55,0.0021999999999999797,5.000049991798719,0.028741242076586612,-0.025808114992535887,0
56,0.0022400000000000198,5.000049991798719,0.028083662398618273,-0.0264301681384149,0
57,0.0022800000000000598,4.99972120164681,0.029398821755059465,-0.025079334105605484,0
58,0.0023200000000000998,5.000049991798719,0.029070031915759978,-0.025372301123667902,0
59,0.0023599999999999177,5.000049991798719,0.028741242076586612,-0.02566511999732319,0
60,0.0023999999999999577,5.000707572102282,0.030713981113518377,-0.02365626185235958,0
61,0.0024399999999999977,5.000378781950543,0.029727611594485073,-0.024606364123795597,0
62,0.0024800000000000377,5.000378781950543,0.030385191273714543,-0.023912369061534464,0
63,0.0025200000000000777,5.001036362253937,0.0313715607935042,-0.0228894360285942,0
64,0.0025599999999998957,5.000049991798719,0.0313715607935042,-0.022852724391826094,0
65,0.0025999999999999357,5.000378781950543,0.03202914047399413,-0.022158284958639675,0
66,0.0026399999999999757,5.000049991798719,0.03202914047399413,-0.022121277098893166,0
67,0.0026800000000000157,5.000378781950543,0.031700350633686175,-0.02241291098247381,0
68,0.0027200000000000557,4.99972120164681,0.03334429983648583,-0.02073165773722768,0
69,0.0027600000000000957,5.000378781950543,0.033673089677423634,-0.020365415780579915,0
70,0.0027999999999999137,5.000707572102282,0.033015509995673945,-0.02098539528700741,0
71,0.0028399999999999537,5.000378781950543,0.03400187951848738,-0.01996127754410796,0
72,0.0028799999999999937,5.000049991798719,0.03400187951848738,-0.019923381295305184,0
73,0.0029200000000000337,5.000707572102282,0.03433066935967702,-0.01955654719384331,0
74,0.0029600000000000737,5.000049991798719,0.03334429983648583,-0.02050472446374188,0
75,0.0029999999999998916,4.99972120164681,0.03433066935967702,-0.019480014713890072,0
76,0.0030399999999999316,5.000707572102282,0.034988249042434,-0.01878394685196165,0
77,0.0030799999999999716,5.000049991798719,0.034988249042434,-0.018745310742342945,0
78,0.0031200000000000117,4.99972120164681,0.034988249042434,-0.01870652672554838,0
79,0.0031600000000000517,5.000378781950543,0.03433066935967702,-0.019325174508815688,0
80,0.0032000000000000917,5.000049991798719,0.034988249042434,-0.0186285150695655,0
81,0.0032399999999999096,5.000049991798719,0.034988249042434,-0.018589287482972644,0
82,0.0032799999999999496,5.000049991798719,0.034988249042434,-0.018549912094397773,0
83,0.0033199999999999896,5.000049991798719,0.03597461856751347,-0.017524019408094272,0
84,0.0033600000000000296,5.000049991798719,0.037289777936047624,-0.016169189136236432,0
85,0.0034000000000000696,5.000378781950543,0.03597461856751347,-0.017444529891114897,0
86,0.0034400000000001096,5.000049991798719,0.0353170388840013,-0.018062143283626535,0
87,0.0034799999999999276,4.99972120164681,0.03597461856751347,-0.017364449665977198,0
88,0.0035199999999999676,4.99972120164681,0.03564582872569445,-0.017652977965953023,0
89,0.0035600000000000076,5.000378781950543,0.034988249042434,-0.018270148536318778,0
90,0.0036000000000000476,4.999392411494816,0.034988249042434,-0.018229591890252347,0
91,0.0036400000000000876,5.000378781950543,0.03465945920099257,-0.018517677591562032,0
92,0.0036799999999999056,5.000707572102282,0.03597461856751347,-0.01716166663117849,0
93,0.0037199999999999456,5.000049991798719,0.034988249042434,-0.01810703715022817,0
94,0.0037599999999999856,5.000049991798719,0.03400187951848738,-0.01905226029877237,0
95,0.0038000000000000256,5.000378781950543,0.03465945920099257,-0.01835338691551868,0
96,0.0038400000000000656,5.000378781950543,0.03334429983648583,-0.019627105299190838,0
97,0.0038800000000001056,5.000707572102282,0.033015509995673945,-0.01991430692557672,0
98,0.0039199999999999235,5.000049991798719,0.033015509995673945,-0.019872571525289952,0
99,0.0039599999999999635,4.999392411494816,0.033015509995673945,-0.019830688988110395,0
100,0.0040000000000000036,5.000707572102282,0.033015509995673945,-0.01978865936424459,0
101,0.0040400000000000436,5.000049991798719,0.031700350633686175,-0.021061642067126702,0
102,0.0040800000000000836,5.000049991798719,0.030056401434036775,-0.022663267625118125,0
103,0.0041199999999999015,5.000378781950543,0.029727611594485073,-0.02294958689438945,0
104,0.0041599999999999415,5.000049991798719,0.028741242076586612,-0.023893338968558674,0
105,0.0041999999999999815,5.000378781950543,0.028412452237539368,-0.024179364546846212,0
106,0.0042400000000000215,5.000378781950543,0.028741242076586612,-0.02380766368767326,0
107,0.0042800000000000615,4.99972120164681,0.028412452237539368,-0.02409339580614059,0
108,0.0043200000000001015,5.000049991798719,0.027097292882612076,-0.02536535080019406,0
109,0.0043599999999999195,5.000049991798719,0.027426082721154613,-0.024993210021893815,0
110,0.0043999999999999595,5.000378781950543,0.026110923367741706,-0.026264871919326034,0
111,0.0044399999999999995,5.000049991798719,0.025124553854007567,-0.02720759752476939,0
112,0.0044800000000000395,5.000378781950543,0.025453343691792682,-0.02683501739154949,0
113,0.0045200000000000795,4.99972120164681,0.024466974178816228,-0.02777745028836754,0
114,0.0045599999999998975,5.000049991798719,0.024795764016348754,-0.02740457758162889,0
115,0.0045999999999999375,5.001036362253937,0.023809394504130166,-0.028346718040526176,0
116,0.0046399999999999775,5.000378781950543,0.023809394504130166,-0.02830234287328003,0
117,0.0046800000000000175,5.000378781950543,0.023809394504130166,-0.02825782166355828,0
118,0.0047200000000000575,5.000378781950543,0.02216544531962629,-0.029857103668574064,0
119,0.0047600000000000975,5.000049991798719,0.021836655483104705,-0.03014108042981156,0
120,0.0047999999999999154,4.99972120164681,0.021507865646709548,-0.03042491137035911,0
121,0.0048399999999999554,5.000378781950543,0.021836655483104705,-0.03005101689404844,0
122,0.0048799999999999955,5.000378781950543,0.02117907581044083,-0.030663346260488687,0
123,0.0049200000000000355,4.99972120164681,0.021507865646709548,-0.03028916053071322,0
124,0.0049600000000000755,5.000378781950543,0.021507865646709548,-0.03024361913021454,0
125,0.004999999999999893,5.000049991798719,0.021507865646709548,-0.03019793230428232,0
126,0.005039999999999933,5.000378781950543,0.02216544531962629,-0.02949452046282636,0
127,0.005079999999999973,5.000707572102282,0.021836655483104705,-0.029777332872297422,0
128,0.005120000000000013,4.99972120164681,0.022494235156274286,-0.029073630598931803,0
129,0.005160000000000053,5.000049991798719,0.021836655483104705,-0.029684942585396702,0
130,0.0052000000000000934,5.000378781950543,0.02315181482994949,-0.028323370553247476,0
131,0.005239999999999911,4.99972120164681,0.022494235156274286,-0.028934392632200275,0
132,0.005279999999999951,5.000378781950543,0.022494235156274286,-0.02888769021851553,0
133,0.005319999999999991,5.000378781950543,0.022823024993048696,-0.02851205324082435,0
134,0.005360000000000031,5.000378781950543,0.022494235156274286,-0.028793851302455882,0
135,0.005400000000000071,5.000378781950543,0.023809394504130166,-0.02743155563951346,0
136,0.005440000000000111,5.000378781950543,0.023809394504130166,-0.02738427488004304,0
137,0.005479999999999929,5.000378781950543,0.024138184341410046,-0.027008059935746887,0
138,0.005519999999999969,5.000707572102282,0.025124553854007567,-0.02597412106670435,0
139,0.005560000000000009,5.000378781950543,0.025453343691792682,-0.025597617722442467,0
140,0.005600000000000049,5.000049991798719,0.024466974178816228,-0.02653612967958808,0
141,0.005640000000000089,5.000378781950543,0.0264397132059056,-0.024515389149272992,0
142,0.005679999999999907,4.99972120164681,0.025782133529704057,-0.02512482347809547,0
143,0.005719999999999947,5.000378781950543,0.02676850304419573,-0.024090164876596026,0
144,0.005759999999999987,5.000707572102282,0.02676850304419573,-0.024041732155768065,0
145,0.005800000000000027,5.000378781950543,0.02676850304419573,-0.02399315590821313,0
146,0.005840000000000067,5.000049991798719,0.028083662398618273,-0.02262927688788735,0
147,0.005880000000000107,5.000378781950543,0.027426082721154613,-0.023237993590764318,0
148,0.005919999999999925,5.000378781950543,0.027754872559823354,-0.0228601975797772,0
149,0.005959999999999965,4.99972120164681,0.028741242076586612,-0.02182467880520324,0
150,0.006000000000000005,5.000378781950543,0.029070031915759978,-0.02144659673625452,0
151,0.006040000000000045,5.000378781950543,0.029727611594485073,-0.020739581970606068,0
152,0.006080000000000085,4.99972120164681,0.030056401434036775,-0.020361214303089334,0
153,0.006119999999999903,4.999063621342738,0.029727611594485073,-0.020640283691031013,0
154,0.006159999999999943,4.99972120164681,0.0313715607935042,-0.01894647153544454,0
155,0.006199999999999983,5.000049991798719,0.030056401434036775,-0.020211625553366586,0
156,0.006240000000000023,5.000707572102282,0.029727611594485073,-0.02049026778766646,0
157,0.006280000000000063,5.000378781950543,0.030056401434036775,-0.020111188201721,0
158,0.006320000000000103,5.000049991798719,0.029727611594485073,-0.02038954627759509,0
159,0.006359999999999921,5.000378781950543,0.030056401434036775,-0.02001018278223418,0
160,0.006399999999999961,4.99972120164681,0.030385191273714543,-0.01963067752106261,0
161,0.006440000000000001,5.000378781950543,0.029727611594485073,-0.02023740014085599,0
162,0.006480000000000041,4.99972120164681,0.029727611594485073,-0.02018640157251573,0
163,0.006520000000000081,5.000378781950543,0.030385191273714543,-0.019477681946376314,0
164,0.006559999999999899,5.000049991798719,0.030056401434036775,-0.01975519059220583,0
165,0.006599999999999939,5.000049991798719,0.029727611594485073,-0.020032558123899726,0
166,0.006639999999999979,4.99972120164681,0.030385191273714543,-0.019323415157029535,0
167,0.006680000000000019,5.000378781950543,0.029727611594485073,-0.019929290704360385,0
168,0.006720000000000059,4.99972120164681,0.029398821755059465,-0.02020623570445334,0
169,0.006760000000000099,5.000707572102282,0.030385191273714543,-0.019167880777154735,0
170,0.006799999999999917,4.99972120164681,0.028741242076586612,-0.02075970413575118,0
171,0.006839999999999957,4.99972120164681,0.029070031915759978,-0.020378648168881467,0
172,0.006879999999999997,5.000378781950543,0.028741242076586612,-0.020655031733217352,0
173,0.006920000000000037,5.000378781950543,0.029398821755059465,-0.01994490577609064,0
174,0.006960000000000077,5.000049991798719,0.030056401434036775,-0.019234639959269235,0
175,0.006999999999999895,5.000049991798719,0.029070031915759978,-0.020168183626439653,0
176,0.007039999999999935,4.99972120164681,0.029398821755059465,-0.01978642837000162,0
177,0.007079999999999975,4.99972120164681,0.028741242076586612,-0.020390903213836395,0
178,0.007120000000000015,5.001036362253937,0.029070031915759978,-0.02000886927236094,0
179,0.007160000000000055,5.000049991798719,0.028741242076586612,-0.02028427589270692,0
180,0.007200000000000095,5.000707572102282,0.028741242076586612,-0.020230753709796462,0
181,0.007239999999999913,5.000049991798719,0.029727611594485073,-0.01919072319865053,0
182,0.007279999999999953,5.000049991798719,0.030385191273714543,-0.018479343870886747,0
183,0.007319999999999993,5.000049991798719,0.030056401434036775,-0.018754195563097934,0
184,0.007360000000000033,5.000378781950543,0.030713981113518377,-0.018042539394876666,0
185,0.007400000000000073,5.000378781950543,0.0313715607935042,-0.017330745043842157,0
186,0.007440000000000113,5.000049991798719,0.031042770953448276,-0.0176051821908095,0
187,0.007479999999999931,5.000049991798719,0.03433066935967702,-0.014262793231026676,0
188,0.007519999999999971,5.000378781950543,0.034988249042434,-0.013550585297129986,0
189,0.007560000000000011,5.000378781950543,0.03663219825152894,-0.011851870303495294,0
190,0.007600000000000051,4.999392411494816,0.037947357621069405,-0.01048180778150645,0
191,0.007640000000000091,5.000378781950543,0.037947357621069405,-0.01042676742794694,0
192,0.007679999999999909,5.000378781950543,0.0392625169926218,-0.009056430669827647,0
193,0.007719999999999949,4.99972120164681,0.04024888652260587,-0.008014746889679425,0
194,0.007759999999999989,4.99972120164681,0.04189283574175878,-0.006315346727481786,0
195,0.007800000000000029,5.000049991798719,0.04320799511934159,-0.004944599885996985,0
196,0.00784000000000007,5.000378781950543,0.043865574808886185,-0.004231296385023203,0
197,0.00788000000000011,5.000049991798719,0.045180734189481195,-0.002860277020108746,0
198,0.007919999999999927,5.000378781950543,0.045838313880531376,-0.002146701347792719,0
199,0.007959999999999967,4.99972120164681,0.045180734189481195,-0.0027481492378815253,0
200,0.008000000000000007,5.000049991798719,0.04616710372624461,-0.0017055122590191561,0
201,0.008040000000000047,5.000049991798719,0.045838313880531376,-0.001977899201360902,0
202,0.008080000000000087,4.99972120164681,0.046495893572083224,-0.0012637813263371989,0
203,0.008119999999999905,5.000049991798719,0.04682468341804723,-0.0008783181992802272,0
204,0.008159999999999945,5.000049991798719,0.04879742249646346,0.0011512290740637553,0
205,0.008199999999999985,5.000378781950543,0.04715347326413659,-0.00043577723459389817,0
206,0.008240000000000025,5.000378781950543,0.04715347326413659,-0.0003786997685834813,0
207,0.008280000000000065,5.000378781950543,0.048139842803156765,0.0006648815910811137,0
208,0.008320000000000105,5.000378781950543,0.04748226311035131,6.464788454006373e-05,0
209,0.008359999999999923,5.000049991798719,0.04682468341804723,-0.000535451846200477,0
210,0.008399999999999963,4.99972120164681,0.045838313880531376,-0.0014642076384812734,0
211,0.008440000000000003,5.000378781950543,0.046495893572083224,-0.0007488806109570839,0
212,0.008480000000000043,5.000378781950543,0.04616710372624461,-0.0010197897243267862,0
213,0.008520000000000083,4.99972120164681,0.045509524034943585,-0.001619355482209428,0
214,0.008559999999999901,4.99972120164681,0.043865574808886185,-0.003205157770752372,0
215,0.008599999999999941,4.999392411494816,0.043865574808886185,-0.003146878027301424,0
216,0.008639999999999981,4.99972120164681,0.04255041543029908,-0.004403625055966719,0
217,0.008680000000000021,5.000378781950543,0.04287920527475757,-0.004016290455887094,0
218,0.008720000000000061,5.000378781950543,0.04123525605372079,-0.005601562717680617,0
219,0.008760000000000101,5.000049991798719,0.039920096679152195,-0.006857913132766555,0
220,0.008799999999999919,4.99972120164681,0.03893372714954513,-0.0077853419073395345,0
221,0.008839999999999959,5.000378781950543,0.03564582872569445,-0.011014167986597684,0
222,0.008879999999999999,5.000049991798719,0.03400187951848738,-0.012598913466951595,0
223,0.008920000000000039,4.99972120164681,0.03268672015498804,-0.01385473792993945,0
224,0.008960000000000079,5.000378781950543,0.030713981113518377,-0.01576801110714591,0
225,0.008999999999999897,4.99972120164681,0.027754872559823354,-0.018667523044036575,0
226,0.009039999999999937,4.99972120164681,0.024795764016348754,-0.021566904430679906,0
227,0.009079999999999977,5.000049991798719,0.022494235156274286,-0.023808575807713783,0
228,0.009120000000000017,4.99972120164681,0.01821996728971463,-0.028022856080144126,0
229,0.009160000000000057,4.99972120164681,0.015260858779241576,-0.030921847101822386,0
230,0.009200000000000097,5.000378781950543,0.012301750279031881,-0.03382070843629733,0
231,0.009239999999999915,5.000049991798719,0.008685062126061585,-0.0373770199656203,0
232,0.009279999999999955,5.000378781950543,0.005725953648695714,-0.04027562258175511,0
233,0.009319999999999995,5.000049991798719,0.0014516858662357995,-0.04448925548703002,0
234,0.009360000000000035,5.000049991798719,-0.002165002240582567,-0.048045179923639714,0
235,0.009400000000000075,5.000049991798719,-0.005781690331979852,-0.051600975776034966,0
236,0.009439999999999893,4.99972120164681,-0.00939837840793746,-0.05515664326972706,0
237,0.009479999999999933,5.000049991798719,-0.013343856291351444,-0.0590409724544411,0
238,0.009519999999999973,5.000378781950543,-0.01597417487006185,-0.061610014446144785,0
239,0.009560000000000013,4.99972120164681,-0.020577232363083744,-0.06615166769327901,0
240,0.009600000000000053,5.001365152405508,-0.021234812002893247,-0.0667477156590433,0
241,0.009640000000000093,4.998734831190575,-0.0228787611001723,-0.06833000588614001,0
242,0.009679999999999911,5.000378781950543,-0.025837869467188898,-0.07122732842015392,0
243,0.009719999999999951,5.001693942556992,-0.023536340738185738,-0.06886388712994052,0
244,0.009759999999999991,4.999063621342738,-0.028468188006913683,-0.07373369534515883,0
245,0.009800000000000031,5.002351522859708,-0.025509079649145103,-0.07071242167878414,0
246,0.009840000000000071,4.99972120164681,-0.02781060837275358,-0.07295165907718706,0
247,0.009880000000000111,4.999063621342738,-0.026824238920549456,-0.07190287252296843,0
248,0.009919999999999929,5.000049991798719,-0.025509079649145103,-0.070525170613824,0
249,0.009959999999999969,4.999392411494816,-0.022549971280973066,-0.06750339431456204,0
250,0.010000000000000009,5.000707572102282,-0.0228787611001723,-0.06776939115298868,0
251,0.010040000000000049,5.002351522859708,-0.020577232363083744,-0.0654049446304028,0
252,0.010080000000000089,5.000378781950543,-0.013343856291351444,-0.05810852621469633,0
253,0.010119999999999907,4.999392411494816,-0.012686276645394332,-0.057387779913825335,0
254,0.010159999999999947,4.998077250885994,-0.007425639459330238,-0.0520638520107334,0
255,0.010199999999999987,5.000049991798719,-0.005452900506126915,-0.05002769852850183,0
256,0.010240000000000027,5.000707572102282,-0.002165002240582567,-0.04667626217332943,0
257,0.010280000000000067,4.99972120164681,0.0027668451816259126,-0.041680753353579944,0
258,0.010320000000000107,5.000378781950543,0.007041112970698912,-0.03734270111302517,0
259,0.010359999999999925,5.000049991798719,0.01065780111668721,-0.03366210571687105,0
260,0.010399999999999965,4.99972120164681,0.016247228281592724,-0.02800864875965609,0
261,0.010440000000000005,5.000378781950543,0.02117907581044083,-0.023012649154178128,0
262,0.010480000000000045,5.000378781950543,0.027754872559823354,-0.01637257830295055,0
263,0.010520000000000085,5.000049991798719,0.03334429983648583,-0.010718755159614134,0
264,0.010559999999999903,5.000378781950543,0.0392625169926218,-0.004736020633641959,0
265,0.010599999999999943,5.000049991798719,0.045180734189481195,0.0012468351732699522,0
266,0.010639999999999983,5.000378781950543,0.052085320970511856,0.008216181540345098,0
267,0.010680000000000023,4.999392411494816,0.05767474840510757,0.013870489271475474,0
268,0.010720000000000063,4.99972120164681,0.06457933528590981,0.020840076892524283,0
269,0.010760000000000103,5.000049991798719,0.07049755265605667,0.026823415178575775,0
270,0.01079999999999992,5.000049991798719,0.07641577006649763,0.03280687341125093,0
271,0.01083999999999996,5.000378781950543,0.08036124836247038,0.036817712165185465,0
272,0.01088,5.000707572102282,0.08463551653658133,0.04115746016111135,0
273,0.01092000000000004,4.99972120164681,0.08890978473160849,0.04549732726866068,0
274,0.01096000000000008,5.000049991798719,0.09252647322063803,0.049179733486503036,0
275,0.010999999999999899,5.000049991798719,0.09449921240276843,0.051218308938050766,0
276,0.011039999999999939,5.000049991798719,0.09778711104951865,0.05457216211786836,0
277,0.011079999999999979,5.000049991798719,0.10041742997579037,0.05726855356263574,0
278,0.011120000000000019,5.000049991798719,0.10304774890994019,0.0599650627212215,0
279,0.011160000000000059,4.99972120164681,0.10370532864470776,0.060688950105612274,0
280,0.011200000000000099,4.99972120164681,0.10403411851227598,0.06108416476597414,0
281,0.011239999999999917,5.000049991798719,0.10403411851227598,0.06115070641865908,0
282,0.011279999999999957,5.000049991798719,0.10469169824778124,0.061874944382200064,0
283,0.011319999999999997,5.000049991798719,0.1033765387772625,0.06062655942926723,0
284,0.011360000000000037,5.000049991798719,0.1033765387772625,0.06069344994934389,0
285,0.011400000000000077,5.000049991798719,0.10206137930871124,0.05944529671504295,0
286,0.011439999999999895,5.000049991798719,0.09975985024348359,0.05721088930866569,0
287,0.011479999999999935,5.000378781950543,0.09811590091487153,0.05563417677267543,0
288,0.011519999999999975,5.000049991798719,0.095485581995499,0.05307120948761343,0
289,0.011560000000000015,5.000049991798719,0.09154010363123893,0.049193197306017254,0
290,0.011600000000000055,5.000049991798719,0.08858099486971066,0.0463016689809195,0
291,0.011640000000000095,4.99972120164681,0.08430672667629135,0.04209509518186062,0
292,0.011679999999999913,4.99972120164681,0.08069003822127407,0.03854621478204835,0
293,0.011719999999999953,5.000378781950543,0.0770733497812526,0.034997447759743956,0
294,0.011759999999999993,5.000049991798719,0.07411424106876553,0.0321063735279076,0
295,0.011800000000000033,5.000049991798719,0.07115513236633955,0.029215412068243005,0
296,0.011840000000000073,5.000049991798719,0.06753844396594139,0.0256669833706508,0
297,0.011880000000000113,4.999392411494816,0.06425054543319586,0.02244745669744791,0
298,0.01191999999999993,5.000378781950543,0.061291436764380286,0.01955683174036344,0
299,0.01195999999999997,4.99972120164681,0.05734595855501376,0.015679948789129233,0
300,0.01200000000000001,5.000378781950543,0.05504442960785576,0.013447126339480003,0
301,0.01204000000000005,5.000049991798719,0.050770161579389975,0.009241675739638511,0
302,0.01208000000000009,5.000378781950543,0.045509524034943585,0.004049966245436371,0
303,0.012119999999999909,5.000378781950543,0.04189283574175878,0.0005023163133869857,0
304,0.012159999999999949,4.99972120164681,0.03696098809372539,-0.004360382974580282,0
305,0.012199999999999989,5.000049991798719,0.03202914047399413,-0.009222972548505326,0
306,0.012240000000000029,5.000049991798719,0.025782133529704057,-0.015400612075668348,0
307,0.012280000000000069,5.000049991798719,0.01953512663099438,-0.021578142501576435,0
308,0.012320000000000109,5.000049991798719,0.012630540111881347,-0.028413143809085165,0
309,0.012359999999999927,4.99972120164681,0.004410794328726292,-0.03656319595992894,0
310,0.012399999999999967,5.000049991798719,-0.0024937920677107622,-0.04339798062266584,0
311,0.012440000000000007,4.99972120164681,-0.00874079875891258,-0.04957507779931742,0
312,0.012480000000000047,5.000378781950543,-0.014987805404005308,-0.05575206747076772,0
313,0.012520000000000087,4.99972120164681,-0.02090602218305261,-0.06160016014005576,0
314,0.012559999999999905,4.99972120164681,-0.025509079649145103,-0.06613298668446327,0
315,0.012599999999999945,5.000378781950543,-0.029454557457189598,-0.07000812708430218,0
316,0.012639999999999985,4.99972120164681,-0.03340003524671499,-0.07388316130571906,0
317,0.012680000000000025,5.000378781950543,-0.03603035376276496,-0.07644293042158633,0
318,0.012720000000000065,5.000378781950543,-0.0383318824575425,-0.07867380421314506,0
319,0.012760000000000105,4.99972120164681,-0.0383318824575425,-0.07860304413713586,0
320,0.012799999999999923,4.99972120164681,-0.03866067227056637,-0.07886096903281156,0
321,0.012839999999999963,5.000049991798719,-0.03800309264438971,-0.07813241998060315,0
322,0.012880000000000003,4.99972120164681,-0.037016723204157484,-0.07707497693951318,0
323,0.012920000000000043,5.000049991798719,-0.03635914357669136,-0.07634621987142143,0
324,0.012960000000000083,5.000378781950543,-0.037016723204157484,-0.07693251855475061,0
325,0.0129999999999999,5.000049991798719,-0.03635914357669136,-0.07620355481708943,0
326,0.01303999999999994,5.000049991798719,-0.03603035376276496,-0.07580327806555773,0
327,0.01307999999999998,5.000049991798719,-0.03340003524671499,-0.07310137012433274,0
328,0.01312000000000002,5.000378781950543,-0.03372882506167206,-0.07335846836757627,0
329,0.01316000000000006,5.001036362253937,-0.033071245431629134,-0.07262909536150133,0
330,0.0132000000000001,5.000378781950543,-0.03274245561641449,-0.07222841070934306,0
331,0.013239999999999919,4.99972120164681,-0.03241366580107112,-0.07182762494073636,0
332,0.013279999999999959,4.99972120164681,-0.03208487598559902,-0.071426738401456,0
333,0.013319999999999999,5.000378781950543,-0.031756086169998185,-0.07102575143845777,0
334,0.013360000000000039,5.000378781950543,-0.03044092690630805,-0.06963829495191595,0
335,0.013400000000000079,5.000049991798719,-0.030112137090063842,-0.06923710818667761,0
336,0.013439999999999896,5.000378781950543,-0.030112137090063842,-0.06916461186202787,0
337,0.013479999999999936,4.99972120164681,-0.030112137090063842,-0.06909201651338237,0
338,0.013519999999999976,5.000049991798719,-0.029125767640559533,-0.06803295304406753,0
339,0.013560000000000016,5.000049991798719,-0.02781060837275358,-0.06664500143928566,0
340,0.013600000000000056,5.000378781950543,-0.026495449102891075,-0.06525695187044818,0
341,0.013640000000000096,4.999392411494816,-0.025180289830972882,-0.06386880469388677,0
342,0.013679999999999914,4.99972120164681,-0.024851500012672237,-0.06346692972276775,0
343,0.013719999999999954,4.99972120164681,-0.02320755091924319,-0.06174979858699838,0
344,0.013759999999999994,5.000378781950543,-0.0228787611001723,-0.06134773019587635,0
345,0.013800000000000034,5.000378781950543,-0.021892391642189743,-0.06028798599709856,0
346,0.013840000000000074,5.000049991798719,-0.021234812002893247,-0.05955693581038275,0
347,0.013879999999999892,5.000707572102282,-0.01991965272276132,-0.05816821053947861,0
348,0.013919999999999932,5.000378781950543,-0.018933283261316228,-0.05710818000832844,0
349,0.013959999999999972,5.000049991798719,-0.017618123977595282,-0.0557192649415362,0
350,0.014000000000000012,5.000707572102282,-0.01696054433496612,-0.05498783516918051,0
351,0.014040000000000052,4.99972120164681,-0.01597417487006185,-0.05392752159574744,0
352,0.014080000000000092,4.99972120164681,-0.01564538504817102,-0.05352469405551829,0
353,0.01411999999999991,5.000378781950543,-0.015316595226152155,-0.05312177327548177,0
354,0.01415999999999995,5.000049991798719,-0.014987805404005308,-0.052718759626903186,0
355,0.01419999999999999,5.000378781950543,-0.014330225759327644,-0.05198686365977761,0
356,0.01424000000000003,5.000049991798719,-0.012686276645394332,-0.05026850610090829,0
357,0.01428000000000007,5.000378781950543,-0.012357486822223915,-0.04986521608496965,0
358,0.01432000000000011,5.000378781950543,-0.011042327528263687,-0.04847546522619016,0
359,0.014359999999999928,5.000049991798719,-0.011042327528263687,-0.04840078266622397,0
360,0.014399999999999968,5.000378781950543,-0.0116999071754995,-0.048983589136371256,0
361,0.014440000000000008,5.000049991798719,-0.011042327528263687,-0.048251146074067164,0
362,0.014480000000000048,5.000049991798719,-0.010055958056451306,-0.04718982332946479,0
363,0.014520000000000088,4.99972120164681,-0.010384747880516562,-0.04744357040438922,0
364,0.014559999999999906,5.000378781950543,-0.010055958056451306,-0.047039648737313505,0
365,0.014599999999999946,5.000378781950543,-0.0090695885834889,-0.04597805871105999,0
366,0.014639999999999986,5.000049991798719,-0.00939837840793746,-0.046231539656631,0
367,0.014680000000000026,5.000707572102282,-0.009727168232258263,-0.04648493266228455,0
368,0.014720000000000066,5.000049991798719,-0.010384747880516562,-0.04706702793898261,0
369,0.014760000000000106,5.000049991798719,-0.010713537704454032,-0.04732024622646084,0
370,0.014799999999999924,5.000049991798719,-0.010713537704454032,-0.047244587914191206,0
371,0.014839999999999964,5.000378781950543,-0.011042327528263687,-0.047497633040101364,0
372,0.014880000000000004,5.000378781950543,-0.010713537704454032,-0.047093012524032134,0
373,0.014920000000000044,5.000049991798719,-0.0116999071754995,-0.04800346570081424,0
374,0.014960000000000084,5.000378781950543,-0.011042327528263687,-0.04726988455075128,0
375,0.014999999999999902,5.000378781950543,-0.0113711173519455,-0.04752258805756307,0
376,0.015039999999999942,5.000378781950543,-0.010713537704454032,-0.0467888376747579,0
377,0.015079999999999982,5.000049991798719,-0.010055958056451306,-0.04605500326967257,0
378,0.015120000000000022,5.000049991798719,-0.009727168232258263,-0.04564987506437558,0
379,0.015160000000000062,5.000378781950543,-0.00939837840793746,-0.04524466363374709,0
380,0.015200000000000102,5.000378781950543,-0.008412008934208556,-0.04418178972839161,0
381,0.01523999999999992,5.000049991798719,-0.0090695885834889,-0.04476278252167583,0
382,0.01527999999999996,5.000049991798719,-0.008412008934208556,-0.04402853399404076,0
383,0.01532,5.000049991798719,-0.0090695885834889,-0.04460936314567748,0
384,0.01536000000000004,5.000049991798719,-0.007425639459330238,-0.0428885823087118,0
385,0.01540000000000008,5.000378781950543,-0.007754429284417372,-0.04314045961100693,0
386,0.015439999999999898,4.999392411494816,-0.006110480157705198,-0.04141951755774613,0
387,0.015479999999999938,5.000378781950543,-0.004137741201439435,-0.03936970567845051,0
388,0.015519999999999978,5.001036362253937,-0.00348016154833046,-0.0386349735141499,0
389,0.015560000000000018,5.000378781950543,-0.002165002240582567,-0.0372425825164091,0
390,0.015600000000000058,5.000378781950543,-0.0028225818947114484,-0.0378228517121423,0
391,0.0156400000000001,5.000049991798719,-0.0024937920677107622,-0.037416673069776626,0
392,0.015679999999999916,4.99972120164681,0.00013652655288240445,-0.034708887689314585,0
393,0.015719999999999956,5.000378781950543,0.00013652655288240445,-0.03463134339843614,0
394,0.015759999999999996,5.000049991798719,0.001122896037706475,-0.033567352506244166,0
395,0.015800000000000036,5.000049991798719,0.0021092655236763236,-0.03250328491195979,0
396,0.015840000000000076,5.000378781950543,0.0021092655236763236,-0.03242551051926114,0
397,0.015879999999999894,4.99972120164681,0.001122896037706475,-0.03333402974572718,0
398,0.015919999999999934,5.000049991798719,0.0014516858662357995,-0.032927314209481244,0
399,0.015959999999999974,5.000049991798719,0.001122896037706475,-0.033178103301683644,0
400,0.016000000000000014,5.000378781950543,0.001780475694892425,-0.03244244830016999,0
401,0.016040000000000054,5.000707572102282,0.0007941062093044515,-0.03335066825504283,0
402,0.016080000000000094,5.000378781950543,-0.00019226327513760522,-0.03425881444499623,0
403,0.016119999999999912,5.001365152405508,0.00013652655288240445,-0.033851727982325275,0
404,0.016159999999999952,5.000378781950543,-0.001178632758433426,-0.035088517743433134,0
405,0.016199999999999992,5.000378781950543,-0.0018362124133269458,-0.03566765535815776,0
406,0.016240000000000032,4.99972120164681,-0.0028225818947114484,-0.03657551073599612,0
407,0.016280000000000072,5.000378781950543,-0.004137741201439435,-0.03781208430336866,0
408,0.016320000000000112,5.000378781950543,-0.004466531027802631,-0.03806221718311606,0
409,0.01635999999999993,5.000378781950543,-0.005452900506126915,-0.03896985893709077,0
410,0.01639999999999997,5.000378781950543,-0.007096849634115457,-0.04053500999349678,0
411,0.01644000000000001,5.000707572102282,-0.0090695885834889,-0.04242888095552642,0
412,0.01648000000000005,5.000378781950543,-0.010713537704454032,-0.043993892605825556,0
413,0.01652000000000009,5.000707572102282,-0.012686276645394332,-0.04588762502618081,0
414,0.016559999999999908,4.999392411494816,-0.014330225759327644,-0.04745249900397375,0
415,0.016599999999999948,5.000049991798719,-0.01597417487006185,-0.049017304798333126,0
416,0.016639999999999988,5.000049991798719,-0.0166317545134594,-0.04959567338139592,0
417,0.016680000000000028,5.000049991798719,-0.01926207308192608,-0.0521467135827926,0
418,0.016720000000000068,5.000707572102282,-0.020577232363083744,-0.053382527628316405,0
419,0.016760000000000108,5.000049991798719,-0.022221181461645576,-0.05494706506179515,0
420,0.016799999999999926,5.000378781950543,-0.024851500012672237,-0.057497905958343844,0
421,0.016839999999999966,5.000707572102282,-0.025837869467188898,-0.05840473220997811,0
422,0.016880000000000006,5.000049991798719,-0.027481818555480722,-0.05996907298890607,0
423,0.016920000000000046,5.000049991798719,-0.030112137090063842,-0.06251971855049579,0
424,0.016960000000000086,5.000378781950543,-0.03142729635426868,-0.06375514062185489,0
425,0.016999999999999904,5.000378781950543,-0.0340576148765004,-0.06630565817608752,0
426,0.017039999999999944,5.000378781950543,-0.037016723204157484,-0.0691849022062093,0
427,0.017079999999999984,5.000049991798719,-0.03866067227056637,-0.07074892409207832,0
428,0.017120000000000024,5.000378781950543,-0.04194857039370768,-0.07395683259911778,0
429,0.017160000000000064,5.000049991798719,-0.04523646850393555,-0.07716467910603174,0
430,0.017200000000000104,5.000049991798719,-0.0491819462191435,-0.08103004367996718,0
431,0.017239999999999922,4.999063621342738,-0.05279863410837703,-0.08456655734012278,0
432,0.017279999999999962,4.999392411494816,-0.056415321981929514,-0.08810301034784115,0
433,0.017320000000000002,5.000378781950543,-0.06036079964426265,-0.09196819295952571,0
434,0.017360000000000042,5.000378781950543,-0.06463506709067811,-0.09616210562330843,0
435,0.017400000000000082,5.000378781950543,-0.06858054471400928,-0.10002716918573773,0
436,0.0174399999999999,4.99972120164681,-0.07351239171679176,-0.10487854330394543,0
437,0.01747999999999994,5.000707572102282,-0.07745786929788322,-0.10874348963226255,0
438,0.01751999999999998,5.000049991798719,-0.08699277337447438,-0.11819780454422628,0
439,0.01756000000000002,5.000378781950543,-0.08896551213519292,-0.12008989668568026,0
440,0.01760000000000006,5.001036362253937,-0.09488372838901253,-0.12592740932367957,0
441,0.0176400000000001,5.000378781950543,-0.10080194460026483,-0.13176486538149873,0
442,0.017679999999999918,5.000049991798719,-0.10639137098284411,-0.1372734755328327,0
443,0.017719999999999958,4.999392411494816,-0.11263837689474214,-0.14343960959632748,0
444,0.017759999999999998,5.000049991798719,-0.1182278031965366,-0.14894810889406473,0
445,0.017800000000000038,5.000049991798719,-0.12381722946007585,-0.15445655346024262,0
446,0.017840000000000078,5.000707572102282,-0.12940665568529136,-0.159964943757984,0
447,0.017879999999999896,4.99972120164681,-0.1349960818721146,-0.16547328025124947,0
448,0.017919999999999936,4.998406041038327,-0.13992792847560936,-0.17032398385996528,0
449,0.017959999999999976,4.99972120164681,-0.14617493413031024,-0.17648979368435713,0
450,0.018000000000000016,5.002351522859708,-0.14781888297880097,-0.17805249433352457,0
451,0.018040000000000056,5.000049991798719,-0.15275072950422225,-0.18290304075794445,0
452,0.018080000000000096,5.000378781950543,-0.15702499646856433,-0.18709595618775976,0
453,0.018119999999999914,5.001036362253937,-0.15538104763880373,-0.1853706048589121,0
454,0.018159999999999954,4.9970908804284875,-0.16097047364631673,-0.19087857787255094,0
455,0.018199999999999994,5.000707572102282,-0.15669620670288015,-0.1865228079110302,0
456,0.018240000000000034,5.000049991798719,-0.15702499646856433,-0.1867700451057966,0
457,0.018280000000000074,4.997748460733576,-0.15636741693706202,-0.18603086392271456,0
458,0.018320000000000114,5.001693942556992,-0.15110678066575872,-0.18068857739213257,0
459,0.018359999999999932,4.998734831190575,-0.14420219550771413,-0.17370229384086008,0
460,0.018399999999999972,4.997748460733576,-0.14354461596578083,-0.17296296824628166,0
461,0.018440000000000012,4.998734831190575,-0.13664003074327558,-0.16597658978702357,0
462,0.018480000000000052,5.000378781950543,-0.1323657636713375,-0.16162048277030777,0
463,0.018520000000000092,5.000378781950543,-0.12546117835382642,-0.15463401127684562,0
464,0.01855999999999991,5.000707572102282,-0.11855659297780442,-0.14764749397131516,0
465,0.01859999999999995,5.000049991798719,-0.10935047905231472,-0.1383594028411357,0
466,0.01863999999999999,4.99972120164681,-0.10080194460026483,-0.12972884638834667,0
467,0.01868000000000003,5.000378781950543,-0.09093825089119083,-0.11978308636236734,0
468,0.01872000000000007,5.000049991798719,-0.08173213665616903,-0.11049486197490378,0
469,0.01876000000000011,5.000049991798719,-0.07285481211811588,-0.10153538393024428,0
470,0.018799999999999928,5.000049991798719,-0.0629911180754263,-0.09158949350889346,0
471,0.018839999999999968,4.99972120164681,-0.054113793336938706,-0.08262993000253277,0
472,0.018880000000000008,5.000049991798719,-0.04523646850393555,-0.07367032449601654,0
473,0.018920000000000048,5.000378781950543,-0.03603035376276496,-0.06438188765998923,0
474,0.018960000000000088,5.000378781950543,-0.026824238920549456,-0.055093409786589394,0
475,0.018999999999999906,5.000049991798719,-0.017289334156344746,-0.045476101540603955,0
476,0.019039999999999946,5.000049991798719,-0.010055958056451306,-0.03816028199477518,0
477,0.019079999999999986,5.000049991798719,-0.001178632758433426,-0.029200473773815024,0
478,0.019120000000000026,5.000378781950543,0.007369902801517392,-0.02056941630176392,0
479,0.019160000000000066,4.99972120164681,0.01328811977796078,-0.014568638912607762,0
480,0.019200000000000106,5.000049991798719,0.02019270630239349,-0.007581453964087326,0
481,0.019239999999999924,5.000707572102282,0.02676850304419573,-0.0009230212767471352,0
482,0.019279999999999964,4.99972120164681,0.033673089677423634,0.006064238332861807,0
483,0.019320000000000004,5.000378781950543,0.04024888652260587,0.012722744693983129,0
484,0.019360000000000044,5.000378781950543,0.04682468341804723,0.01938128715296318,0
485,0.019400000000000084,5.000049991798719,0.052085320970511856,0.024724705823939,0
486,0.019439999999999902,5.000049991798719,0.05833232810566989,0.031054529139289494,0
487,0.019479999999999942,5.000378781950543,0.06392175558060653,0.03672680736214928,0
488,0.019519999999999982,4.999392411494816,0.06852481352819326,0.041412750130784756,0
489,0.019560000000000022,5.000049991798719,0.07411424106876553,0.04708509607027657,0
490,0.019600000000000062,4.99972120164681,0.08036124836247038,0.05341505484487191,0
491,0.019640000000000102,5.000049991798719,0.08463551653658133,0.057772307085304286,0
492,0.01967999999999992,4.99972120164681,0.08956736445577489,0.06278717115907484,0
493,0.01971999999999996,5.000378781950543,0.09515679213113215,0.06845964657945877,0
494,0.01976,5.000707572102282,0.09943106037751487,0.07281699366288585,0
495,0.01980000000000004,5.000378781950543,0.10304774890994019,0.07651679162531988,0
496,0.01984000000000008,5.000378781950543,0.10600685772026662,0.0795590399589492,0
497,0.019879999999999898,5.000378781950543,0.11060991588943969,0.08424526724443757,0
498,0.019919999999999938,4.99972120164681,0.11389781459642795,0.08761636415986532,0
499,0.019959999999999978,5.000378781950543,0.1168569234431935,0.09065869980570465,0
500,0.020000000000000018,5.000049991798719,0.12047361204714746,0.09435864329728036,0
501,0.020040000000000058,5.000707572102282,0.12277514116645709,0.09674345489008199,0
502,0.020080000000000098,5.000378781950543,0.12474788041634353,0.09879950369606647,0
503,0.020119999999999916,5.000049991798719,0.1270494095467647,0.10118436896134625,0
504,0.020159999999999956,5.001036362253937,0.12967972856027796,0.10389805018405729,0
505,0.020199999999999996,5.000049991798719,0.13329641721659097,0.10759812661891524,0
506,0.020240000000000036,5.000049991798719,0.13658431600783633,0.11096943825249497,0
507,0.020280000000000076,5.000378781950543,0.13954342493035102,0.11401198457501477,0
508,0.020319999999999894,4.99972120164681,0.14316011362678138,0.11771213472244652,0
509,0.020359999999999934,5.000049991798719,0.14677680233788687,0.12141230842832457,0
510,0.020399999999999974,5.000378781950543,0.15006470117888354,0.12478371530009477,0
511,0.020440000000000014,4.99972120164681,0.1553253393496381,0.1301278840293138,0
512,0.020480000000000054,4.99972120164681,0.16124355732868845,0.13612965458567505,0
513,0.020520000000000094,5.000378781950543,0.16650419556507132,0.14147386690884176,0
514,0.02055999999999991,4.99972120164681,0.17275120351076823,0.1478044699408981,0
515,0.02059999999999995,4.99972120164681,0.17834063170943854,0.15347751371508758,0
516,0.02063999999999999,5.000707572102282,0.18721795891963036,0.16243847647902926,0
517,0.02068000000000003,5.000378781950543,0.19543770641409902,0.17074187899404158,0
518,0.02072000000000007,5.000049991798719,0.20365745398298266,0.1790453005383232,0
519,0.02076000000000011,5.000049991798719,0.213521151163564,0.1889926901367196,0
520,0.02079999999999993,5.000378781950543,0.22338484845061252,0.19894009777107063,0
521,0.02083999999999997,5.000049991798719,0.23324854584375157,0.20888752292758297,0
522,0.02088000000000001,5.000378781950543,0.24409861309828967,0.21982133484766692,0
523,0.02092000000000005,5.000707572102282,0.2539623107129931,0.22976879351571328,0
524,0.02096000000000009,5.000049991798719,0.2661275379155893,0.24201779764460274,0
525,0.020999999999999908,5.000378781950543,0.2776351854156503,0.2536092374285948,0
526,0.021039999999999948,5.000378781950543,0.29045799279675455,0.26651585193549465,0
527,0.021079999999999988,4.999392411494816,0.3032808003528239,0.2794224809429948,0
528,0.021120000000000028,4.99972120164681,0.31511723825146676,0.2913427541020236,0
529,0.021160000000000068,5.000049991798719,0.32662488635011494,0.3029342507528864,0
530,0.021200000000000108,4.99972120164681,0.3384613245394841,0.3148545502687318,0
531,0.021239999999999926,4.99972120164681,0.35128413274320414,0.32776123205518787,0
532,0.021279999999999966,4.99972120164681,0.36575089092192753,0.34231187555447506,0
533,0.021320000000000006,4.99972120164681,0.378244909523295,0.35488979069537807,0
534,0.021360000000000046,4.99972120164681,0.39139650822467714,0.3681252966359929,0
535,0.021400000000000086,4.99972120164681,0.4061920569754983,0.3830047628060558,0
536,0.021439999999999904,4.99972120164681,0.42098760594931867,0.39788423885902974,0
537,0.021479999999999944,4.999392411494816,0.4361119451294989,0.4130925142577749,0
538,0.021519999999999984,4.99972120164681,0.45222265450953725,0.4292871684748907,0
539,0.021560000000000024,5.000378781950543,0.46964852413130026,0.4467969910309524,0
540,0.021600000000000064,5.000049991798719,0.4877319740578325,0.46496440146732637,0
541,0.021640000000000104,5.000378781950543,0.5064730043221342,0.48378939929495474,0
542,0.02167999999999992,5.000378781950543,0.5252140349304034,0.5026144039976024,0
543,0.02171999999999996,4.99972120164681,0.5462565960200915,0.523740945189918,0
544,0.02176,5.000049991798719,0.5666415774826937,0.5442099122402313,0
545,0.02180000000000004,5.000378781950543,0.5876841394090099,0.5653364647158169,0
546,0.02184000000000008,4.99972120164681,0.6090554917948154,0.5867918120885716,0
547,0.0218799999999999,5.000049991798719,0.6297692645165647,0.6075895837107224,0
548,0.02191999999999994,5.000049991798719,0.6511406177433341,0.6290449392267758,0
549,0.02195999999999998,5.000049991798719,0.6702104409784629,0.6481987676151636,0
550,0.02200000000000002,5.000707572102282,0.6876363142257499,0.6657086483544458,0
551,0.02204000000000006,5.000049991798719,0.7044046076109038,0.6825609510447675,0
552,0.0220800000000001,4.99972120164681,0.7175562104434181,0.6957965644697405,0
553,0.022119999999999918,4.99972120164681,0.7293926531252843,0.7077170185051627,0
554,0.022159999999999958,5.000378781950543,0.7399139356140816,0.7183223125821139,0
555,0.022199999999999998,5.000049991798719,0.7458321570572437,0.7243245453212293,0
556,0.022240000000000038,5.000049991798719,0.7517503785314171,0.7303267772720626,0
557,0.022280000000000078,4.99972120164681,0.7530655388632145,0.7317259467338485,0
558,0.022319999999999895,5.000049991798719,0.7524079586971248,0.731152373823417,0
559,0.022359999999999935,5.000049991798719,0.7497776380365853,0.7286060580162725,0
560,0.022399999999999975,5.000049991798719,0.744188206653251,0.723100628555868,0
561,0.022440000000000015,5.000049991798719,0.7353108745131143,0.714307294879729,0
562,0.022480000000000055,5.000049991798719,0.727419912669612,0.706500327512568,0
563,0.022520000000000095,5.000049991798719,0.7172274203707116,0.6963918251733743,0
564,0.022559999999999913,4.99972120164681,0.7047333976798198,0.6839817873963296,0
565,0.022599999999999953,4.999392411494816,0.6905954248046261,0.6699277938596568,0
566,0.022639999999999993,5.000049991798719,0.6748135018093161,0.6542298440978395,0
567,0.022680000000000033,5.000707572102282,0.6603467392634013,0.6398470481504561,0
568,0.022720000000000073,4.99972120164681,0.642592076401848,0.6221763447223169,0
569,0.022760000000000113,5.000378781950543,0.624837413832169,0.6045056338905599,0
570,0.02279999999999993,5.000049991798719,0.6083979117149908,0.5881500752852266,0
571,0.02283999999999997,5.000378781950543,0.5903144596793723,0.5701505580045843,0
572,0.02288000000000001,4.99972120164681,0.5725597979818551,0.5524798217741833,0
573,0.02292000000000005,5.000049991798719,0.5557915066545638,0.5357954460949634,0
574,0.02296000000000009,4.99972120164681,0.5390232155971949,0.5191110603352458,0
575,0.02299999999999991,5.000049991798719,0.5235700848633494,0.5037418240170712,0
576,0.02303999999999995,5.000378781950543,0.5064730043221342,0.4867286264778067,0
577,0.02307999999999999,4.99972120164681,0.4906910840765913,0.4710305772885795,0
578,0.02312000000000003,4.99972120164681,0.475237954074,0.45566130586458564,0
579,0.02316000000000007,4.99972120164681,0.45978482430819984,0.4402920216674182,0
580,0.02320000000000011,5.000378781950543,0.4433453248189173,0.4239363542043994,0
581,0.023239999999999927,5.000707572102282,0.4292073554751086,0.40988220281192994,0
582,0.023279999999999967,4.999392411494816,0.4144118063779491,0.39517045705848486,0
583,0.023320000000000007,4.99972120164681,0.3999450474756555,0.38078748635944076,0
584,0.023360000000000047,4.99972120164681,0.3844919188843002,0.3654181302978961,0
585,0.023400000000000087,5.000049991798719,0.3710115303133902,0.35202149805025584,0
586,0.023439999999999905,5.000378781950543,0.35818872184687417,0.3392824291672443,0
587,0.023479999999999945,5.000049991798719,0.343393173828313,0.3245706034590822,0
588,0.023519999999999985,5.000378781950543,0.32991278583243494,0.31117391996704635,0
589,0.023560000000000025,5.000378781950543,0.3170899779156205,0.2984347982139616,0
590,0.023600000000000065,5.000049991798719,0.3039383802321952,0.285366867820499,0
591,0.023640000000000105,4.99972120164681,0.2914443626025587,0.27295649807331074,0
592,0.023679999999999923,5.000049991798719,0.2789503451389692,0.26054610855081994,0
593,0.023719999999999963,5.000378781950543,0.2664563278421922,0.24813569871987418,0
594,0.023760000000000003,5.000049991798719,0.2549486804802404,0.2367116378144914,0
595,0.023800000000000043,5.000049991798719,0.24245466350606643,0.22430118575355823,0
596,0.023840000000000083,4.999392411494816,0.23094701644254975,0.21287708152582213,0
597,0.0238799999999999,5.000049991798719,0.2204257392533413,0.20243932456074215,0
598,0.02391999999999994,5.000378781950543,0.2105620419981934,0.19265912438382415,0
599,0.02395999999999998,4.99972120164681,0.20004076504351986,0.182221320827187,0
600,0.02400000000000002,5.000049991798719,0.19083464780801468,0.1730986527751865,0
601,0.02404000000000006,5.000378781950543,0.18064216097778074,0.1629895903795498,0
602,0.0240800000000001,5.000049991798719,0.17242241361780836,0.15485324217085977,0
603,0.02411999999999992,5.000707572102282,0.16354508655331312,0.1460592884398985,0
604,0.02415999999999996,5.000378781950543,0.15401017980404885,0.13660772867196583,0
605,0.0242,4.99972120164681,0.14644801245445316,0.1291288814170308,0
606,0.02424000000000004,4.99972120164681,0.140201004692246,0.12296516632833601,0
607,0.02428000000000008,5.000049991798719,0.13296762733813555,0.11581505369210901,0
608,0.024319999999999897,5.000378781950543,0.12606303991870926,0.10899370250045945,0
609,0.024359999999999937,4.999392411494816,0.12080240192096793,0.10381627170591892,0
610,0.024399999999999977,5.000049991798719,0.11521297408265467,0.09831002151177587,0
611,0.024440000000000017,5.000378781950543,0.10995233614951355,0.09313253112933989,0
612,0.024480000000000057,4.999392411494816,0.10600685772026662,0.08927016962292494,0
613,0.024520000000000097,5.000378781950543,0.10239016917566456,0.0857365668389056,0
614,0.024559999999999915,4.999392411494816,0.09844469078034762,0.08187414250758385,0
615,0.024599999999999955,5.000378781950543,0.09614316172460258,0.0796556352849517,0
616,0.024639999999999995,5.000378781950543,0.0902249441804355,0.07382040680877022,0
617,0.024680000000000035,5.001036362253937,0.08956736445577489,0.07324578285277816,0
618,0.024720000000000075,4.999392411494816,0.08496430639699507,0.06872564672922171,0
619,0.024759999999999893,5.000378781950543,0.08233398751715135,0.06617821541709537,0
620,0.024799999999999933,5.000049991798719,0.07904608892849513,0.06297316949466275,0
621,0.024839999999999973,5.000707572102282,0.0770733497812526,0.061083247578240796,0
622,0.024880000000000013,5.000049991798719,0.07411424106876553,0.05820692012734682,0
623,0.024920000000000053,5.000049991798719,0.06983997294627126,0.054015396763484436,0
624,0.024960000000000093,4.999063621342738,0.06622328455134852,0.050481416090595116,0
625,0.02499999999999991,5.000049991798719,0.06457933528590981,0.048920136977056494,0
626,0.02503999999999995,5.000378781950543,0.06030506721035353,0.044728500949840794,0
627,0.02507999999999999,5.000049991798719,0.05570200930641887,0.04020803645737531,0
628,0.02512000000000003,4.99972120164681,0.052085320970511856,0.03667390236287396,0
629,0.02516000000000007,4.99972120164681,0.048139842803156765,0.03281093873379434,0
630,0.02520000000000011,5.000378781950543,0.04353678496405114,0.028290355196898376,0
631,0.02523999999999993,4.999392411494816,0.03827614746376892,0.023112151229961464,0
632,0.02527999999999997,4.99972120164681,0.03334429983648583,0.018262695834504045,0
633,0.02532000000000001,5.000378781950543,0.0264397132059056,0.011440459601723907,0
634,0.02536000000000005,4.99972120164681,0.019863916466630674,0.004946970893873137,0
635,0.02540000000000009,5.000378781950543,0.014274489278030808,-0.0005601911618675626,0
636,0.025439999999999907,5.000707572102282,0.006712323140007484,-0.008040135597618181,0
637,0.025479999999999947,4.99972120164681,0.001122896037706475,-0.013547384960080622,0
638,0.025519999999999987,5.000707572102282,-0.006439269983302923,-0.021027417735353382,0
639,0.025560000000000027,5.000378781950543,-0.014001435936796827,-0.028507495468693744,0
640,0.025600000000000067,5.000378781950543,-0.018933283261316228,-0.033357300129931405,0
641,0.025640000000000107,5.000378781950543,-0.026166659285104213,-0.04050867957839904,0
642,0.025679999999999925,5.000378781950543,-0.03241366580107112,-0.046673736137891775,0
643,0.025719999999999965,4.99972120164681,-0.037016723204157484,-0.051194890734023446,0
644,0.025760000000000005,5.000378781950543,-0.04260615001678679,-0.05670246241967353,0
645,0.025800000000000045,5.000049991798719,-0.047537997173404054,-0.061552502659519726,0
646,0.025840000000000085,5.000707572102282,-0.053456213722917104,-0.0673889610324731,0
647,0.025879999999999903,5.000049991798719,-0.05805927101017365,-0.07191030941314941,0
648,0.025919999999999943,5.000378781950543,-0.06364869768191721,-0.0774180769778195,0
649,0.025959999999999983,5.000707572102282,-0.06923812431607472,-0.0829258948336904,0
650,0.026000000000000023,5.000707572102282,-0.07482755091257769,-0.08843376350972126,0
651,0.026040000000000063,4.999392411494816,-0.07943060808137585,-0.09295531414463037,0
652,0.026080000000000103,4.99972120164681,-0.0840336652245519,-0.09747691666900371,0
653,0.02611999999999992,5.000378781950543,-0.08765035296190492,-0.10101220223087254,0
654,0.02615999999999996,5.000378781950543,-0.09192462026741856,-0.10520512033217555,0
655,0.0262,5.000049991798719,-0.09587009776051285,-0.10906930212000454,0
656,0.02624000000000004,5.000049991798719,-0.09784283649996468,-0.11096079918051849,0
657,0.02628000000000008,5.000049991798719,-0.10113073438852911,-0.11416750994355856,0
658,0.0263199999999999,4.999392411494816,-0.10474742205074437,-0.11770306556044663,0
659,0.02635999999999994,5.001036362253937,-0.10474742205074437,-0.11762198912179189,0
660,0.02639999999999998,4.999392411494816,-0.10573379141039972,-0.11852733817562588,0
661,0.02644000000000002,4.998734831190575,-0.10902168926734575,-0.121734272385424,0
662,0.02648000000000006,5.001365152405508,-0.10507621183742798,-0.11770788849254488,0
663,0.0265200000000001,4.999063621342738,-0.1116520075434007,-0.124202835444923,0
664,0.026559999999999917,5.002351522859708,-0.10540500162397977,-0.11787503900611535,0
665,0.026599999999999957,4.999063621342738,-0.1100080586218566,-0.12239736424330883,0
666,0.026639999999999997,4.998734831190575,-0.10967926883715166,-0.12198790198076742,0
667,0.026680000000000037,5.000378781950543,-0.10573379141039972,-0.11796181188281168,0
668,0.026720000000000077,5.000049991798719,-0.10474742205074437,-0.11689489018200683,0
669,0.026759999999999895,4.99972120164681,-0.10113073438852911,-0.11319771103174792,0
670,0.026799999999999935,5.000378781950543,-0.0971852569206733,-0.10917180345162925,0
671,0.026839999999999975,5.000049991798719,-0.09356856922517286,-0.1054747475419387,0
672,0.026880000000000015,5.000049991798719,-0.08896551213519292,-0.10079138465774379,0
673,0.026920000000000055,5.000378781950543,-0.08271850604340404,-0.09446413571322176,0
674,0.026960000000000095,5.001036362253937,-0.07680028970234042,-0.08846573998201096,0
675,0.026999999999999913,5.000049991798719,-0.06890933451510713,-0.08049466938791161,0
676,0.027039999999999953,5.000378781950543,-0.059374430230432304,-0.07087971419993172,0
677,0.027079999999999993,5.000049991798719,-0.0491819462191435,-0.06060724430875708,0
678,0.027120000000000033,5.000378781950543,-0.03734551301769716,-0.04869089077027461,0
679,0.027160000000000073,5.000707572102282,-0.02320755091924319,-0.03447307439663036,0
680,0.027200000000000113,4.99972120164681,-0.007754429284417372,-0.018940165067015513,0
681,0.02723999999999993,4.99972120164681,0.009013851957515154,-0.0020921632288027625,0
682,0.02727999999999997,4.99972120164681,0.0264397132059056,0.015413350999705283,0
683,0.02732000000000001,5.000049991798719,0.045838313880531376,0.034891536521092226,0
684,0.02736000000000005,5.000049991798719,0.06556570484479929,0.054698443682037606,0
685,0.02740000000000009,5.000378781950543,0.08430672667629135,0.07351891254386918,0
686,0.02743999999999991,5.000378781950543,0.10797959693268015,0.09727116014848425,0
687,0.02747999999999995,4.99972120164681,0.1286933589292962,0.11806422929592321,0
688,0.02751999999999999,4.99972120164681,0.15006470117888354,0.1395148079841315,0
689,0.02756000000000003,4.99972120164681,0.17209362372496856,0.16162289574233457,0
690,0.02760000000000007,5.000707572102282,0.19478012661180016,0.18438849210098462,0
691,0.02764000000000011,4.999392411494816,0.21582268052103293,0.2055100672284501,0
692,0.027679999999999927,5.000378781950543,0.23949555424744107,0.22926188940673597,0
693,0.027719999999999967,5.000049991798719,0.26185326888031846,0.25169847921289024,0
694,0.027760000000000007,5.000378781950543,0.2865125135838949,0.2764365252994272,0
695,0.027800000000000047,4.99972120164681,0.3088702293420662,0.29887296813906405,0
696,0.027840000000000087,5.000049991798719,0.3332006853260908,0.323282076392424,0
697,0.027879999999999905,5.000378781950543,0.35884630176409116,0.3490062697775445,0
698,0.027919999999999945,4.99972120164681,0.3828479690485663,0.3730864381773964,0
699,0.027959999999999985,5.000049991798719,0.40915116675246316,0.3994680606559613,0
700,0.028000000000000025,5.000049991798719,0.4354543651603439,0.42584960698940555,0
701,0.028040000000000065,5.000378781950543,0.46274393424495536,0.4532174466426559,0
702,0.028080000000000105,5.000378781950543,0.4913486640819322,0.4819003691841091,0
703,0.028119999999999923,5.000378781950543,0.5196246047131478,0.5102544241489897,0
704,0.028159999999999963,5.000378781950543,0.5488869161863815,0.5395947710790221,0
705,0.028200000000000003,5.000707572102282,0.5781492284839486,0.5689350394510664,0
706,0.028240000000000043,5.000378781950543,0.6051100113219628,0.5959736984763864,0
707,0.028280000000000083,5.000378781950543,0.6337147450803869,0.6246562280307064,0
708,0.0283199999999999,5.000378781950543,0.6616618994869187,0.6526810973381044,0
709,0.02835999999999994,4.99972120164681,0.6873075241619211,0.6784043555159477,0
710,0.02839999999999998,4.99972120164681,0.7132819395057993,0.7044563224622753,0
711,0.02844000000000002,5.000378781950543,0.7366260348257547,0.7278778869825583,0
712,0.02848000000000006,4.99972120164681,0.759312550460083,0.750641788914004,0
713,0.0285200000000001,5.000049991798719,0.7806839061822091,0.7720904475295977,0
714,0.02855999999999992,5.000049991798719,0.7994249415278601,0.790908701865282,0
715,0.02859999999999996,5.000707572102282,0.8165220266694709,0.8080829215943693,0
716,0.02864,5.000378781950543,0.8352630625934149,0.8269010072047773,0
717,0.02868000000000004,5.000378781950543,0.8513737779247413,0.8430886868237718,0
718,0.02872000000000008,5.000707572102282,0.8664981231290427,0.8582899104198396,0
719,0.028759999999999897,5.000049991798719,0.8826088388835827,0.8744774181738229,0
720,0.028799999999999937,5.000378781950543,0.8977331844822911,0.8896784688839212,0
721,0.028839999999999977,5.000049991798719,0.9131863203977998,0.9052082225277319,0
722,0.028880000000000017,4.99972120164681,0.9283106663770027,0.9204090983578188,0
723,0.028920000000000057,4.99972120164681,0.94244864213462,0.9346235155952836,0
724,0.028960000000000097,5.000378781950543,0.9569154081933584,0.9491666342699339,0
725,0.028999999999999915,5.000049991798719,0.9720397547070663,0.9643672440434431,0
726,0.029039999999999955,5.000378781950543,0.9858489408135443,0.9782526035621694,0
727,0.029079999999999995,5.000378781950543,0.997356596017574,0.9898363418401903,0
728,0.029120000000000035,5.000049991798719,1.0059051399508974,0.9984608780192914,0
729,0.029160000000000075,5.000378781950543,1.0137961036324712,1.0064277426292279,0
730,0.029200000000000115,5.000378781950543,1.017741585491489,1.0104490336107537,1
731,0.029239999999999933,5.000049991798719,1.0174127953361076,1.0101959602843558,0
732,0.029279999999999973,5.000378781950543,1.0154400544055873,1.0082988434023994,0
733,0.029320000000000013,5.000378781950543,1.007220300561111,1.0001546203399516,0
734,0.029360000000000053,5.000378781950543,0.9950550649684146,0.988064821777417,0
735,0.029400000000000093,5.000378781950543,0.9792731378868172,0.9723582374895696,0
736,0.02943999999999991,5.000049991798719,0.9569154081933584,0.950075755869696,0
737,0.02947999999999995,4.999392411494816,0.933571308500429,0.926806809047231,0
738,0.02951999999999999,5.000378781950543,0.9052953573525657,0.8986059150845596,0
739,0.02956000000000003,4.99972120164681,0.8734027155687349,0.8667882343193053,0
740,0.02960000000000007,5.000378781950543,0.8385509636635697,0.8320113467855731,0
741,0.02964000000000011,5.000378781950543,0.8000825217209551,0.7936176720875417,0
742,0.02967999999999993,4.99972120164681,0.7609565008860241,0.7545663208914646,0
743,0.02971999999999997,5.000707572102282,0.7198577409550757,0.7135421325155928,0
744,0.02976000000000001,5.000378781950543,0.6774438222927798,0.6712026868473853,0
745,0.02980000000000005,5.000049991798719,0.6340435351280255,0.6278767736393618,0
746,0.02984000000000009,5.000707572102282,0.5906432497136282,0.584550762668816,0
747,0.029879999999999907,5.000707572102282,0.5485581261652309,0.542539813576721,0
748,0.029919999999999947,5.001036362253937,0.508774534378359,0.5028302957847915,0
749,0.029959999999999987,4.99972120164681,0.46899094414008136,0.46312067860715117,0
750,0.030000000000000027,5.001036362253937,0.4292073554751086,0.42341096159643576,0
751,0.030040000000000067,5.000707572102282,0.3933692480451899,0.38764662394319704,0
752,0.030080000000000107,5.000049991798719,0.3601614615998705,0.35451250492666553,0
753,0.030119999999999925,5.000049991798719,0.32892641598654804,0.32335102392481363,0
754,0.030159999999999965,4.999063621342738,0.29834895127214406,0.2928470205360324,0
755,0.030200000000000005,4.999392411494816,0.27105938682681197,0.26563081366284513,0
756,0.030240000000000045,5.000049991798719,0.24541377277417437,0.24005845296215064,0
757,0.030280000000000085,5.000378781950543,0.22141210898470348,0.216129937838609,0
758,0.030319999999999903,5.000049991798719,0.1983968155303359,0.19318768789926122,0
759,0.030359999999999943,5.000049991798719,0.17669668223564464,0.17156049250470629,0
760,0.030399999999999983,5.000049991798719,0.1566404988971596,0.1515771409884275,0
761,0.030440000000000023,4.99972120164681,0.13757068564758101,0.13258005302101084,0
762,0.030480000000000063,4.99972120164681,0.11850087280679227,0.11358285846116356,0
763,0.030520000000000103,5.000378781950543,0.10173258944188096,0.09688708591574086,0
764,0.03055999999999992,5.000378781950543,0.08660825570091973,0.08183515507353228,0
765,0.03059999999999996,5.000049991798719,0.07016876280110178,0.0654679566934035,0
766,0.03064,4.999392411494816,0.056688378855200935,0.05205975843076188,0
767,0.03068000000000004,5.000049991798719,0.04353678496405114,0.038980240930041044,0
768,0.03072000000000008,5.000378781950543,0.030056401434036775,0.025571824042196878,0
769,0.0307599999999999,5.000049991798719,0.019863916466630674,0.015451195514250837,0
770,0.03079999999999994,5.000049991798719,0.009013851957515154,0.004672876788416325,0
771,0.03083999999999998,5.000049991798719,-0.00019226327513760522,-0.004461603769613964,0
772,0.03088000000000002,4.999392411494816,-0.010384747880516562,-0.014582565260513713,0
773,0.03092000000000006,5.000707572102282,-0.017618123977595282,-0.021744530253741123,0
774,0.0309600000000001,5.000049991798719,-0.024851500012672237,-0.028906607645074855,0
775,0.030999999999999917,5.000049991798719,-0.03142729635426868,-0.03541121825150567,0
776,0.031039999999999957,5.000378781950543,-0.03734551301769716,-0.04125836253579862,0
777,0.031079999999999997,4.99972120164681,-0.04161978058197445,-0.045461671523401026,0
778,0.031120000000000037,5.000707572102282,-0.04523646850393555,-0.049007515116549494,0
779,0.031160000000000077,5.000049991798719,-0.047537997173404054,-0.051238314149435304,0
780,0.031199999999999894,5.000049991798719,-0.05082589526164695,-0.05445559773665459,0
781,0.031239999999999934,5.000049991798719,-0.05181226468559495,-0.05537146823742317,0
782,0.031279999999999974,5.000378781950543,-0.05378500352999273,-0.05727382417772048,0
783,0.031320000000000014,5.000378781950543,-0.05444258314375501,-0.057861137346640834,0
784,0.031360000000000054,4.99972120164681,-0.054771372950441696,-0.05811977760686343,0
785,0.031400000000000095,5.000378781950543,-0.05575774236972354,-0.05903611481611265,0
786,0.03143999999999991,5.000378781950543,-0.05608653217589139,-0.05929499018566209,0
787,0.03147999999999995,5.000049991798719,-0.05608653217589139,-0.05922519395836445,0
788,0.03151999999999999,5.000049991798719,-0.05608653217589139,-0.059155516375212214,0
789,0.03156000000000003,5.000049991798719,-0.05608653217589139,-0.05908595786994364,0
790,0.03160000000000007,5.000707572102282,-0.05575774236972354,-0.05868772906903702,0
791,0.03164000000000011,4.99972120164681,-0.054771372950441696,-0.057632040597093814,0
792,0.03167999999999993,4.99972120164681,-0.054113793336938706,-0.05690526230345139,0
793,0.03171999999999997,5.000378781950543,-0.05444258314375501,-0.05716497423198613,0
794,0.03176000000000001,4.99972120164681,-0.054113793336938706,-0.05676722777696713,0
795,0.03180000000000005,5.000707572102282,-0.05510016275699865,-0.057684762206004214,0
796,0.03184000000000009,5.000049991798719,-0.054113793336938706,-0.05662967987807682,0
797,0.03187999999999991,4.999392411494816,-0.05312742391571186,-0.055574720056982996,0
798,0.03191999999999995,4.99972120164681,-0.05378500352999273,-0.05616383220310606,0
799,0.03195999999999999,5.000378781950543,-0.05279863410837703,-0.05510911866760859,0
800,0.03200000000000003,5.000049991798719,-0.053456213722917104,-0.05569847794396243,0
801,0.03204000000000007,4.99972120164681,-0.053456213722917104,-0.055630381801737905,0
802,0.03208000000000011,5.000049991798719,-0.053456213722917104,-0.05556241027458314,0
803,0.032119999999999926,5.000049991798719,-0.05378500352999273,-0.05582335358751911,0
804,0.032159999999999966,5.000707572102282,-0.053456213722917104,-0.055426842736096216,0
805,0.032200000000000006,5.000378781950543,-0.052469844300912574,-0.0543728781351408,0
806,0.032240000000000046,5.000378781950543,-0.05378500352999273,-0.05562056846509211,0
807,0.032280000000000086,5.000707572102282,-0.05312742391571186,-0.05489564664474683,0
808,0.032319999999999904,5.000049991798719,-0.054771372950441696,-0.05647238057852999,0
809,0.032359999999999944,5.000378781950543,-0.05608653217589139,-0.0577204522190094,0
810,0.032399999999999984,5.000049991798719,-0.05575774236972354,-0.05732470275350693,0
811,0.032440000000000024,5.000049991798719,-0.05674411178783788,-0.05824424084637703,0
812,0.032480000000000064,5.000049991798719,-0.057730481204784426,-0.05916390767941454,0
813,0.032520000000000104,5.000707572102282,-0.05707290159361651,-0.058439754631703034,0
814,0.03255999999999992,5.000707572102282,-0.059045640425562415,-0.060346049579281136,0
815,0.03259999999999996,4.999392411494816,-0.059703220035172325,-0.06093731526028445,0
816,0.03264,5.000049991798719,-0.060689589448612954,-0.06185750110323518,0
817,0.03268000000000004,4.99972120164681,-0.06134716905692379,-0.06244902790029305,0
818,0.03272000000000008,5.000378781950543,-0.06496385689333826,-0.0659997940845713,0
819,0.0327599999999999,4.99972120164681,-0.06759417530993413,-0.06856432240678156,0
820,0.03279999999999994,5.000049991798719,-0.06956691411691203,-0.07047140307450778,0
821,0.03283999999999998,5.000049991798719,-0.07252602231858225,-0.07336498548818826,0
822,0.03288000000000002,5.000049991798719,-0.07581392030804664,-0.07658749043579322,0
823,0.03292000000000006,5.000049991798719,-0.0791018182844538,-0.07981012851007535,0
824,0.0329600000000001,5.000049991798719,-0.08370487542946127,-0.08434805928502687,0
825,0.03299999999999992,4.99972120164681,-0.08765035296190492,-0.0882285443705439,0
826,0.03303999999999996,5.000049991798719,-0.09225341005923197,-0.09276674333385432,0
827,0.03308,5.000378781950543,-0.09619888755075014,-0.09664749739276224,0
828,0.03312000000000004,4.99972120164681,-0.1027746833278755,-0.10315870482589046,0
829,0.03316000000000008,4.99972120164681,-0.10606258119668784,-0.10638214982523087,0
830,0.033199999999999896,4.99972120164681,-0.1116520075434007,-0.11190725916160998,0
831,0.033239999999999936,5.000378781950543,-0.11691264407014172,-0.11710371492046506,0
832,0.033279999999999976,4.99972120164681,-0.12118691122318002,-0.12131393793006601,0
833,0.033320000000000016,5.000049991798719,-0.12644754768848476,-0.12651066725706883,0
834,0.033360000000000056,5.000378781950543,-0.13072181479152978,-0.13072116460631528,0
835,0.033400000000000096,4.99972120164681,-0.1349960818721146,-0.13493179969564928,0
836,0.033439999999999914,5.000049991798719,-0.13894155915730816,-0.13881378312885595,0
837,0.033479999999999954,5.000049991798719,-0.14354461596578083,-0.14335348459998876,0
838,0.033519999999999994,5.000049991798719,-0.14617493413031024,-0.14592058631587174,0
839,0.033560000000000034,5.000378781950543,-0.14979162159258003,-0.14947419659089356,0
840,0.033600000000000074,5.000049991798719,-0.15143557043371902,-0.151055207877542,0
841,0.033640000000000114,4.99972120164681,-0.15406588857258413,-0.15362272846468222,0
842,0.03367999999999993,4.999063621342738,-0.1543946783393399,-0.15388886105113125,0
843,0.03371999999999997,4.99972120164681,-0.1543946783393399,-0.15382634460953437,0
844,0.03376000000000001,5.000378781950543,-0.1557098374050238,-0.15507912833825732,0
845,0.03380000000000005,5.000049991798719,-0.1543946783393399,-0.15370173540480392,0
846,0.03384000000000009,5.000378781950543,-0.1543946783393399,-0.15363964336940583,0
847,0.03387999999999991,5.000049991798719,-0.15373709880569447,-0.1529201139945328,0
848,0.03391999999999995,5.000049991798719,-0.15340830903867092,-0.1525295169408653,0
849,0.03395999999999999,5.000049991798719,-0.1543946783393399,-0.15345422186849655,0
850,0.03400000000000003,5.000049991798719,-0.15406588857258413,-0.15306391099993633,0
851,0.03404000000000007,4.99972120164681,-0.15472346810596177,-0.15366011305896998,0
852,0.03408000000000011,5.000378781950543,-0.15702499646856433,-0.15590040792951115,0
853,0.03411999999999993,5.000378781950543,-0.15965531458921167,-0.15846963689379223,0
854,0.03415999999999997,5.000049991798719,-0.16228563270127483,-0.16103901053718256,0
855,0.03420000000000001,5.000049991798719,-0.16688868937670803,-0.16558126778221582,0
856,0.03424000000000005,4.999392411494816,-0.17116295626601774,-0.16979488062855475,0
857,0.03428000000000009,4.99972120164681,-0.1767523821638599,-0.17532379821858363,0
858,0.034319999999999906,5.000049991798719,-0.18332817728789086,-0.181839231116255,0
859,0.034359999999999946,5.000049991798719,-0.18858881334820277,-0.1870396513765199,0
860,0.034399999999999986,4.99972120164681,-0.19647976737368184,-0.1948705363716809,0
861,0.034440000000000026,5.000049991798719,-0.20338435208186884,-0.20171519916124786,0
862,0.034480000000000066,5.000378781950543,-0.21028893673008708,-0.20856000934306151,0
863,0.034520000000000106,5.000049991798719,-0.21686473157728053,-0.21507617751512753,0
864,0.034559999999999924,5.000378781950543,-0.22508447505944684,-0.22323644245104574,0
865,0.034599999999999964,5.000378781950543,-0.22935874163637177,-0.22745137894674,0
866,0.034640000000000004,5.001036362253937,-0.23396179792407312,-0.23199525395289838,0
867,0.034680000000000044,5.002351522859708,-0.23889364391675078,-0.2368680677969182,0
868,0.034720000000000084,4.99972120164681,-0.24316791041871655,-0.24108345161483158,0
869,0.0347599999999999,5.000707572102282,-0.24645580771209036,-0.2443126160189969,0
870,0.03479999999999994,4.999063621342738,-0.24777096662558196,-0.24556919216687673,0
871,0.03483999999999998,4.997748460733576,-0.25105886389965837,-0.24879865712619964,0
872,0.03488000000000002,5.000049991798719,-0.2507300741728716,-0.2484115858612847,0
873,0.03492000000000006,4.998734831190575,-0.2543467611599342,-0.2519701424111127,0
874,0.0349600000000001,5.002022732708393,-0.25040128444594667,-0.24796668668354888,0
875,0.03499999999999992,4.999063621342738,-0.25105886389965837,-0.24856643886859964,0
876,0.03503999999999996,4.99972120164681,-0.24579822825451764,-0.24324812801945833,0
877,0.03508,5.000707572102282,-0.2444830693377189,-0.2418754462815491,0
878,0.03512000000000004,4.998406041038327,-0.24152396176686608,-0.23885896858918604,0
879,0.03516000000000008,5.001693942556992,-0.23823606445284673,-0.23551385416844278,0
880,0.0351999999999999,5.000049991798719,-0.23297542872182958,-0.23019615465914567,0
881,0.03523999999999994,5.000378781950543,-0.22935874163637177,-0.2265225574359767,0
882,0.03527999999999998,4.99972120164681,-0.22639963400865865,-0.22350669362170972,0
883,0.03532000000000002,5.000378781950543,-0.22376931610804457,-0.2208197737947467,0
884,0.03536000000000006,4.99972120164681,-0.2211389981986721,-0.21813300852673262,0
885,0.0354000000000001,4.99972120164681,-0.2198238392407038,-0.21676155708378386,0
886,0.035439999999999916,5.000378781950543,-0.2198238392407038,-0.21670541977686597,0
887,0.035479999999999956,5.000378781950543,-0.2201526289804009,-0.21697822769055325,0
888,0.035519999999999996,5.000378781950543,-0.2198238392407038,-0.2165936119070399,0
889,0.035560000000000036,4.99972120164681,-0.2211389981986721,-0.21785310090310694,0
890,0.035600000000000076,5.000378781950543,-0.22344052636985184,-0.2200991154924536,0
891,0.035639999999999894,5.000378781950543,-0.2240981058461004,-0.22070133806351766,0
892,0.035679999999999934,5.000378781950543,-0.22475568532180157,-0.22130371760568646,0
893,0.035719999999999974,5.000049991798719,-0.22870116216450587,-0.22519415177993324,0
894,0.035760000000000014,5.000049991798719,-0.22935874163637177,-0.22579684614025364,0
895,0.035800000000000054,5.000378781950543,-0.23198905951835075,-0.22837243675784746,0
896,0.035840000000000094,4.999392411494816,-0.23330421845604804,-0.22963302656697498,0
897,0.03587999999999991,4.99972120164681,-0.235276956858476,-0.23155135426370638,0
898,0.03591999999999995,5.000049991798719,-0.23757848498839296,-0.2337986303962568,0
899,0.03595999999999999,5.000378781950543,-0.23955122338010482,-0.23571727578278379,0
900,0.03600000000000003,5.000049991798719,-0.24251033095838925,-0.2386224496303075,0
901,0.03604000000000007,5.000378781950543,-0.24579822825451764,-0.24185657275072875,0
902,0.03608000000000011,5.000378781950543,-0.2500724947188839,-0.24607722487345401,0
903,0.03611999999999993,4.999392411494816,-0.2546755508852022,-0.250626826809589,0
904,0.03615999999999997,5.000049991798719,-0.25960739674763533,-0.25550537882906316,0
905,0.03620000000000001,4.99972120164681,-0.2661831911824424,-0.2620280400822739,0
906,0.03624000000000005,5.000378781950543,-0.2724301958441417,-0.26822207249624536,0
907,0.03628000000000009,5.000378781950543,-0.2799923593148844,-0.2757314249239982,0
908,0.03631999999999991,5.000049991798719,-0.28722573300058957,-0.28291214904068046,0
909,0.03635999999999995,4.999063621342738,-0.29643184486651636,-0.2920657730791363,0
910,0.03639999999999999,5.000049991798719,-0.30530916691905047,-0.300890769311689,0
911,0.03644000000000003,5.000378781950543,-0.3135289094690918,-0.3090583483135254,0
912,0.03648000000000007,4.99972120164681,-0.32339260041308077,-0.31887003824371857,0
913,0.03652000000000011,5.000049991798719,-0.3319411324618489,-0.32736673207407535,0
914,0.036559999999999926,5.000378781950543,-0.3398320850373933,-0.3352060094859063,0
915,0.036599999999999966,5.000049991798719,-0.34673666847401385,-0.3420590810711593,0
916,0.036640000000000006,5.000378781950543,-0.35364125184798373,-0.34891231616208623,0
917,0.036680000000000046,4.99972120164681,-0.3592306764380789,-0.35445055629176936,0
918,0.036720000000000086,5.000049991798719,-0.3644913113087598,-0.3596601707772998,0
919,0.036759999999999904,5.000049991798719,-0.3697519461428792,-0.36486994955248164,0
920,0.036799999999999944,5.000378781950543,-0.37468379126661006,-0.3697511031927561,0
921,0.036839999999999984,5.000049991798719,-0.3769853189799903,-0.3720021042457424,0
922,0.036880000000000024,5.000378781950543,-0.3792868466863466,-0.374253270360658,0
923,0.036920000000000064,5.000378781950543,-0.3819171640564324,-0.37683339145245337,0
924,0.036960000000000104,5.000378781950543,-0.3829035330678462,-0.3777697297412274,0
925,0.03699999999999992,5.000049991798719,-0.38487627108679634,-0.37969260283398865,0
926,0.03703999999999996,4.999392411494816,-0.3845474814173304,-0.3793141142738823,0
927,0.03708,5.000707572102282,-0.38487627108679634,-0.37959337132564813,0
928,0.03712000000000004,5.000707572102282,-0.3858626400943319,-0.38053037422410624,0
929,0.03716000000000008,4.99972120164681,-0.3852050607561185,-0.37982359551940753,0
930,0.0371999999999999,4.99972120164681,-0.3838899020779677,-0.37845940444961795,0
931,0.03723999999999994,5.000707572102282,-0.38224595372704717,-0.37676659091244186,0
932,0.03727999999999998,5.000378781950543,-0.37961563635810947,-0.37408757579144786,0
933,0.03732000000000002,4.99972120164681,-0.37764289832538056,-0.37206630766795473,0
934,0.03736000000000006,4.99972120164681,-0.37534137061400663,-0.3697164177524742,0
935,0.0374000000000001,5.000378781950543,-0.3727110532209828,-0.3670379062656373,0
936,0.03743999999999992,5.000378781950543,-0.3690943667906157,-0.36337319407365354,0
937,0.03747999999999996,5.000049991798719,-0.36350494227329033,-0.35773591234707436,0
938,0.03752,5.000049991798719,-0.3582443073957605,-0.3524275890310806,0
939,0.03756000000000004,4.99972120164681,-0.3526548827984001,-0.34679064498273027,0
940,0.03760000000000008,4.998734831190575,-0.34640787878797535,-0.34049629072372745,0
941,0.037639999999999896,5.000049991798719,-0.3418048231685274,-0.3358460542713019,0
942,0.037679999999999936,4.99972120164681,-0.33621539845039383,-0.3302096183472273,0
943,0.037719999999999976,5.000049991798719,-0.328324445837486,-0.32227182436509605,0
944,0.037760000000000016,5.000049991798719,-0.3220774416278766,-0.3159781488309038,0
945,0.037800000000000056,5.000049991798719,-0.31451527856919353,-0.3083694846984405,0
946,0.037840000000000096,5.000049991798719,-0.30728190513906617,-0.30108978064973285,0
947,0.037879999999999914,5.000049991798719,-0.3007061110527094,-0.2944678266026264,0
948,0.037919999999999954,5.000378781950543,-0.29248636836596326,-0.28620209481382186,0
949,0.037959999999999994,5.000049991798719,-0.28623936386560334,-0.27990927226918316,0
950,0.038000000000000034,5.000378781950543,-0.27867720045569355,-0.2723014620700869,0
951,0.038040000000000074,5.000707572102282,-0.2721014061263543,-0.2656801924021883,0
952,0.038080000000000114,5.000049991798719,-0.2661831911824424,-0.2597166737640991,0
953,0.03811999999999993,4.99972120164681,-0.25796344813028116,-0.2514517988541145,0
954,0.03815999999999997,4.99972120164681,-0.25105886389965837,-0.2445022547922085,0
955,0.03820000000000001,5.000049991798719,-0.2451406487963938,-0.23853925207259902,0
956,0.03824000000000005,5.000707572102282,-0.23823606445284673,-0.23159005251425263,0
957,0.03828000000000009,5.000378781950543,-0.23330421845604804,-0.22661376388901389,0
958,0.03831999999999991,5.000707572102282,-0.2260708442715611,-0.21933611984546358,0
959,0.03835999999999995,5.000378781950543,-0.2211389981986721,-0.21436017686410605,0
960,0.03839999999999999,5.000049991798719,-0.21653594183621722,-0.2097131967231936,0
961,0.03844000000000003,5.000378781950543,-0.21127530596064387,-0.20440881037678565,0
962,0.03848000000000007,5.000049991798719,-0.2063434597955987,-0.1994333872243343,0
963,0.03852000000000011,5.000049991798719,-0.2020691930944527,-0.19511571719320667,0
964,0.03855999999999993,5.000378781950543,-0.19779492637033497,-0.19079822096871693,0
965,0.03859999999999997,4.99972120164681,-0.1954933981247673,-0.18845363722275793,0
966,0.03864000000000001,5.000049991798719,-0.19154792111690433,-0.18446527888303937,0
967,0.03868000000000005,5.000707572102282,-0.18793123384255755,-0.1808058846121094,0
968,0.03872000000000009,5.000378781950543,-0.18562970556853736,-0.17846182384169426,0
969,0.038759999999999906,4.99972120164681,-0.18299938753297212,-0.17578914797301506,0
970,0.038799999999999946,4.99972120164681,-0.18135543875635207,-0.17410301618782878,0
971,0.038839999999999986,5.000049991798719,-0.18069785924475862,-0.17340342865165523,0
972,0.038880000000000026,5.000378781950543,-0.17905391046341235,-0.1717176469873229,0
973,0.038920000000000066,5.000378781950543,-0.178067541192985,-0.17068962013127867,0
974,0.038960000000000106,5.000378781950543,-0.178067541192985,-0.17064813799697126,0
975,0.038999999999999924,4.99972120164681,-0.17938270021995156,-0.17192199049304294,0
976,0.039039999999999964,5.000378781950543,-0.17971148997635578,-0.17220964947222855,0
977,0.039080000000000004,5.000378781950543,-0.18069785924475862,-0.17315506386551138,0
978,0.039120000000000044,5.000378781950543,-0.18398575679732287,-0.17640218259163287,0
979,0.039160000000000084,5.000049991798719,-0.18628728507607667,-0.1786631082373542,0
980,0.0391999999999999,5.000049991798719,-0.18858881334820277,-0.1809242102127436,0
981,0.03923999999999994,5.000707572102282,-0.19253429037070002,-0.184829437415836,0
982,0.03927999999999998,5.000378781950543,-0.19812371611915885,-0.19037878996140642,0
983,0.03932000000000002,5.000049991798719,-0.20174040334725885,-0.19395558074046573,0
984,0.03936000000000006,5.000378781950543,-0.20700103928604185,-0.19917649711953175,0
985,0.0394000000000001,4.99972120164681,-0.21259046493281109,-0.2047263802295265,0
986,0.03943999999999992,4.99972120164681,-0.21916625976089943,-0.21126280967554292,0
987,0.03947999999999996,4.99972120164681,-0.2257420545343266,-0.21779941635150005,0
988,0.03952,5.000049991798719,-0.2316602697835834,-0.22367862091592502,0
989,0.03956000000000004,5.000049991798719,-0.23922243364849655,-0.2312019516348162,0
990,0.03960000000000008,5.000707572102282,-0.24711338716911185,-0.2390542496725239,0
991,0.0396399999999999,5.000707572102282,-0.25270281253152227,-0.24460519733757696,0
992,0.03967999999999994,5.000378781950543,-0.26059376591638755,-0.25245785093119977,0
993,0.03971999999999998,5.000378781950543,-0.2674983500627522,-0.2593243133111284,0
994,0.03976000000000002,5.000049991798719,-0.2750605135814391,-0.2668485332050021,0
995,0.03980000000000006,4.99972120164681,-0.28229388731310745,-0.27404414156841916,0
996,0.0398400000000001,5.000049991798719,-0.287883312423216,-0.2795959796798986,0
997,0.039879999999999916,4.999392411494816,-0.2938015272017184,-0.2854767859405739,0
998,0.039919999999999956,5.000707572102282,-0.30037732134691947,-0.2920153501580478,0
999,0.039959999999999996,5.000378781950543,-0.3056379566227373,-0.2972389342036528,0
1000,0.040000000000000036,5.000049991798719,-0.3102410124596124,-0.30180511761335915,0
1001,0.040040000000000076,4.99972120164681,-0.3151728579685579,-0.3067002696018227,0
1002,0.040080000000000116,5.000049991798719,-0.3194471240507002,-0.31093802117192393,0
1003,0.040119999999999933,5.000049991798719,-0.3237213901090291,-0.31517595182651703,0
1004,0.040159999999999973,5.000378781950543,-0.3260229179767166,-0.3174413234967475,0
1005,0.040200000000000014,5.000707572102282,-0.32931081491855385,-0.32069324354348794,0
1006,0.040240000000000054,5.000049991798719,-0.3319411324618489,-0.32328776358823513,0
1007,0.040280000000000094,5.000049991798719,-0.3325987118462585,-0.32390972496294,0
1008,0.04031999999999991,5.000378781950543,-0.333585080921812,-0.3248606556080301,0
1009,0.04035999999999995,4.999392411494816,-0.3349002396872354,-0.32614055561073285,0
1010,0.04039999999999999,5.000378781950543,-0.3339138706133801,-0.3251191075285025,0
1011,0.04044000000000003,5.000378781950543,-0.33325629123010236,-0.3244266289758992,0
1012,0.04048000000000007,5.000049991798719,-0.33128355307687346,-0.3224191715751979,0
1013,0.04052000000000011,5.000378781950543,-0.32931081491855385,-0.3204118941721613,0
1014,0.04055999999999993,5.000378781950543,-0.3286532355313166,-0.31971995562196176,0
1015,0.04059999999999997,4.99972120164681,-0.3250365488914117,-0.31606908997794453,0
1016,0.04064000000000001,5.000378781950543,-0.32273502102076074,-0.31373356333722113,0
1017,0.04068000000000005,5.000378781950543,-0.3197759137483405,-0.31074063760205173,0
1018,0.04072000000000009,5.001036362253937,-0.31550164766802896,-0.30643273343769023,0
1019,0.04075999999999991,5.000378781950543,-0.31188496096610946,-0.30278258909988753,0
1020,0.04079999999999995,5.000707572102282,-0.30761069484191084,-0.29847504585553053,0
1021,0.04083999999999999,5.000378781950543,-0.30333642869398375,-0.294167683168818,0
1022,0.04088000000000003,4.999392411494816,-0.2974182139885072,-0.288216552569666,0
1023,0.04092000000000007,5.000378781950543,-0.29314394778412045,-0.28390955117853894,0
1024,0.04096000000000011,5.000049991798719,-0.28755452271197257,-0.2782875716864975,0
1025,0.040999999999999925,5.000378781950543,-0.2832802564531134,-0.27398093183258876,0
1026,0.041039999999999965,5.000378781950543,-0.27769083130983896,-0.26835931397519114,0
1027,0.041080000000000005,5.000049991798719,-0.2714438266903627,-0.2620802975766845,0
1028,0.041120000000000045,5.000378781950543,-0.2648680322999141,-0.255472672394548,0
1029,0.041160000000000085,4.99972120164681,-0.2586210275776379,-0.2491940179182582,0
1030,0.0411999999999999,5.000049991798719,-0.2523740228054256,-0.24291554447811978,0
1031,0.04123999999999994,4.99972120164681,-0.24415427960817487,-0.23466451374552375,0
1032,0.04127999999999998,4.99972120164681,-0.2385648541848675,-0.2290439819640248,0
1033,0.04132000000000002,4.99972120164681,-0.23133148004867887,-0.22177968268945036,0
1034,0.04136000000000006,5.000378781950543,-0.22245415715445271,-0.21287161591737452,0
1035,0.0414000000000001,5.000049991798719,-0.21423441364495155,-0.20462130982936805,0
1036,0.04143999999999992,5.000049991798719,-0.20601467005017304,-0.19637118499231437,0
1037,0.04147999999999996,5.000049991798719,-0.19812371611915885,-0.18845003119021808,0
1038,0.04152,5.000378781950543,-0.19023276210994672,-0.18052905871415656,0
1039,0.04156000000000004,5.000049991798719,-0.18102664900062287,-0.17129310857333213,0
1040,0.04160000000000008,5.000049991798719,-0.1734644845816094,-0.16370128858735902,0
1041,0.0416399999999999,5.000378781950543,-0.1652447405670761,-0.15545207049767545,0
1042,0.04167999999999994,5.000049991798719,-0.15669620670288015,-0.1468742440754824,0
1043,0.04171999999999998,5.000049991798719,-0.14913404205518838,-0.1392829684103657,0
1044,0.04176000000000002,5.000049991798719,-0.14091429779271097,-0.13103429469252925,0
1045,0.04180000000000006,5.000049991798719,-0.1333521329976266,-0.12344338202372027,0
1046,0.0418400000000001,5.000378781950543,-0.12710512724426004,-0.11716780999590612,0
1047,0.04187999999999992,4.99972120164681,-0.12052933166263081,-0.1105636297548227,0
1048,0.04191999999999996,4.999392411494816,-0.11263837689474214,-0.10264447195626306,0
1049,0.04196,4.99972120164681,-0.10704895055476103,-0.09702702422625767,0
1050,0.04200000000000004,5.000378781950543,-0.10014436502334141,-0.09009459895539745,0
1051,0.04204000000000008,5.000378781950543,-0.09422614880735543,-0.08414872465856521,0
1052,0.042079999999999895,5.000378781950543,-0.09060946109885244,-0.08050456053389402,0
1053,0.042119999999999935,5.000378781950543,-0.08337608563423975,-0.07324389032194786,0
1054,0.042159999999999975,5.000049991798719,-0.0791018182844538,-0.06894250989589337,0
1055,0.042200000000000015,5.000049991798719,-0.07515634071119788,-0.06497010091773672,0
1056,0.042240000000000055,5.000049991798719,-0.07088207331895803,-0.06066908379034058,0
1057,0.042280000000000095,4.99972120164681,-0.06660780590468694,-0.05636824830710785,0
1058,0.04231999999999991,4.99972120164681,-0.0629911180754263,-0.05272517406960442,0
1059,0.04235999999999995,5.000049991798719,-0.059374430230432304,-0.04908228146968491,0
1060,0.04239999999999999,5.000049991798719,-0.057401691399265334,-0.047083519527582884,0
1061,0.04244000000000003,5.000707572102282,-0.05510016275699865,-0.04475614940711997,0
1062,0.04248000000000007,5.000049991798719,-0.052469844300912574,-0.042100171092400496,0
1063,0.04252000000000011,5.000049991798719,-0.050168315645034,-0.03977316418235122,0
1064,0.04255999999999993,5.000049991798719,-0.04852436660123595,-0.03810391847182154,0
1065,0.04259999999999997,4.99972120164681,-0.04720920736386795,-0.03676364413621419,0
1066,0.04264000000000001,5.000378781950543,-0.04589404812443025,-0.0354235513461596,0
1067,0.04268000000000005,5.001036362253937,-0.046880417554202566,-0.03638516875014536,0
1068,0.04272000000000009,5.000378781950543,-0.047537997173404054,-0.037018177843676225,0
1069,0.04275999999999991,5.000049991798719,-0.04819557679208804,-0.03765136841016947,0
1070,0.04279999999999995,5.000049991798719,-0.05082589526164695,-0.04025747927246004,0
1071,0.04283999999999999,5.000378781950543,-0.05312742391571186,-0.04253498173370118,0
1072,0.04288000000000003,4.99972120164681,-0.05444258314375501,-0.043826296150967614,0
1073,0.04292000000000007,5.000049991798719,-0.06036079964426265,-0.04972084918842867,0
1074,0.04296000000000011,5.000049991798719,-0.06627901610267752,-0.055615583495291915,0
1075,0.04299999999999993,5.000707572102282,-0.07318360191751903,-0.06249686843192445,0
1076,0.04303999999999997,5.001693942556992,-0.08140334686016236,-0.07069349372963216,0
1077,0.04308000000000001,5.000707572102282,-0.08830793254881113,-0.07757514096463353,0
1078,0.04312000000000005,4.999392411494816,-0.10047315481186896,-0.08971760592143185,0
1079,0.04316000000000009,5.001365152405508,-0.10672016076886852,-0.09594203567374499,0
1080,0.043199999999999905,5.000707572102282,-0.11493990537658023,-0.10413938513061508,0
1081,0.043239999999999945,5.002022732708393,-0.12743391702194856,-0.11661118262934525,0
1082,0.043279999999999985,5.000707572102282,-0.1376264000643745,-0.12678163247778285,0
1083,0.043320000000000025,5.002022732708393,-0.1481476727480983,-0.1372810528667026,0
1084,0.043360000000000065,4.998406041038327,-0.15801136576481256,-0.14712307443242129,0
1085,0.043400000000000105,4.999392411494816,-0.17116295626601774,-0.16025317426915414,0
1086,0.04343999999999992,4.99972120164681,-0.17905391046341235,-0.16812281852940605,0
1087,0.04347999999999996,5.000049991798719,-0.1899039723578687,-0.17895175115294842,0
1088,0.04352,5.000049991798719,-0.19911008536481606,-0.18813691549220346,0
1089,0.04356000000000004,4.99972120164681,-0.20963135724236776,-0.19863741924037254,0
1090,0.04360000000000008,4.999392411494816,-0.21949504950086995,-0.208480523840986,0
1091,0.0436399999999999,5.000378781950543,-0.23067390057845844,-0.2196389676634608,0
1092,0.04367999999999994,5.000049991798719,-0.2385648541848675,-0.22750969434691065,0
1093,0.04371999999999998,5.000378781950543,-0.24711338716911185,-0.23603818066782878,0
1094,0.04376000000000002,5.000049991798719,-0.25631949950946953,-0.2452244265300721,0
1095,0.04380000000000006,4.99972120164681,-0.2642104528578184,-0.2530956935091988,0
1096,0.0438400000000001,5.000378781950543,-0.27440293414794864,-0.26326866846078234,0
1097,0.04387999999999992,4.999392411494816,-0.2826226770265821,-0.27146908495143196,0
1098,0.04391999999999996,5.000049991798719,-0.29248636836596326,-0.28131362977138463,0
1099,0.04396,4.999392411494816,-0.30037732134691947,-0.2891856160175667,0
1100,0.04400000000000004,4.99972120164681,-0.3102410124596124,-0.29903052009434666,0
1101,0.04404000000000008,5.000049991798719,-0.3184607549569337,-0.307231655166933,0
1102,0.0440799999999999,5.000049991798719,-0.326680497366214,-0.31543296967308415,0
1103,0.04411999999999994,5.000049991798719,-0.3365441881408295,-0.32527841197471685,0
1104,0.04415999999999998,5.000049991798719,-0.345092720042401,-0.3338088747401063,0
1105,0.04420000000000002,4.99972120164681,-0.35298367248173695,-0.341681937284831,0
1106,0.04424000000000006,5.000049991798719,-0.3618609938779859,-0.3505415479309272,0
1107,0.0442800000000001,4.99972120164681,-0.3684367874377801,-0.3570998097860342,0
1108,0.044319999999999915,5.000049991798719,-0.37468379126661006,-0.3633294608547714,0
1109,0.044359999999999955,4.99972120164681,-0.3806020053725375,-0.3692305010424521,0
1110,0.044399999999999995,4.99972120164681,-0.3838899020779677,-0.3725014025668571,0
1111,0.044440000000000035,4.99972120164681,-0.38619142976322296,-0.37478611370181114,0
1112,0.044480000000000075,5.000378781950543,-0.38750658843734975,-0.3760846343479918,0
1113,0.044520000000000115,5.000049991798719,-0.38750658843734975,-0.37606817473216203,0
1114,0.04455999999999993,5.000378781950543,-0.38619142976322296,-0.37473673474221586,0
1115,0.04459999999999997,4.999063621342738,-0.3825747433975185,-0.37110394524673096,0
1116,0.04464000000000001,4.99972120164681,-0.37862926734239044,-0.36714254413202674,0
1117,0.04468000000000005,5.000049991798719,-0.3740262119186405,-0.3625237416012094,0
1118,0.04472000000000009,5.000707572102282,-0.37040952549457057,-0.358891485903026,0
1119,0.04475999999999991,5.000378781950543,-0.36613525969835226,-0.35460182854423544,0
1120,0.04479999999999995,5.000707572102282,-0.36120341451886506,-0.3496547693904489,0
1121,0.04483999999999999,5.000049991798719,-0.3582443073957605,-0.3466806257561964,0
1122,0.04488000000000003,5.000049991798719,-0.35495641057876876,-0.34337786976423484,0
1123,0.04492000000000007,5.000707572102282,-0.35298367248173695,-0.341390449699589,0
1124,0.04496000000000011,5.000049991798719,-0.35133972406362957,-0.3397319963905534,0
1125,0.04499999999999993,4.99972120164681,-0.3503533550110579,-0.3387312993912242,0
1126,0.04503999999999997,5.000049991798719,-0.3496957756419657,-0.338059568885187,0
1127,0.04508000000000001,4.99972120164681,-0.3493669859572063,-0.33771680473709603,0
1128,0.04512000000000005,4.99972120164681,-0.34805182721674705,-0.33638784806888034,0
1129,0.04516000000000009,5.000378781950543,-0.34772303753127687,-0.3360454368513538,0
1130,0.04519999999999991,4.999392411494816,-0.3483806169020751,-0.336689570944086,0
1131,0.04523999999999995,5.000049991798719,-0.3483806169020751,-0.33667630177646857,0
1132,0.04527999999999999,5.000378781950543,-0.3483806169020751,-0.33666320857392834,0
1133,0.04532000000000003,5.000378781950543,-0.34673666847401385,-0.33500634276120594,0
1134,0.04536000000000007,5.000049991798719,-0.3470654581599103,-0.3353223907312975,0
1135,0.04540000000000011,4.99972120164681,-0.3457502994154722,-0.33399466578906517,0
1136,0.045439999999999925,5.000049991798719,-0.3444351406687618,-0.3326671162099057,0
1137,0.045479999999999965,5.000707572102282,-0.34213361285655336,-0.33035337277611054,0
1138,0.045520000000000005,5.000049991798719,-0.3404896644150052,-0.32869738376754065,0
1139,0.045560000000000045,5.000049991798719,-0.33818813659088265,-0.32638399027285203,0
1140,0.045600000000000085,5.000378781950543,-0.3358866087598167,-0.3240707715077572,0
1141,0.0456399999999999,4.99972120164681,-0.3329275015382511,-0.3211001479269753,0
1142,0.04567999999999994,5.001036362253937,-0.328324445837486,-0.3164857502782774,0
1143,0.04571999999999998,5.000049991798719,-0.32437896950050266,-0.3125291062393154,0
1144,0.04576000000000002,5.000378781950543,-0.32010470344584,-0.3082438465615004,0
1145,0.04580000000000006,5.000049991798719,-0.3135289094690918,-0.3016572328715024,0
1146,0.0458400000000001,5.000378781950543,-0.3082682742471789,-0.2963859516755252,0
1147,0.04587999999999992,5.000378781950543,-0.3026788492845063,-0.2907860543054659,0
1148,0.04591999999999996,4.99972120164681,-0.2957742654511562,-0.2838711714571104,0
1149,0.04596,4.99972120164681,-0.29051363010813797,-0.2786004103153861,0
1150,0.04600000000000004,4.99972120164681,-0.2839378358790871,-0.2720146633260649,0
1151,0.04604000000000008,5.000049991798719,-0.2773620415942758,-0.26542908913977564,0
1152,0.0460799999999999,5.000378781950543,-0.27045745753533396,-0.25851489785672777,0
1153,0.04611999999999994,5.000049991798719,-0.26388166313656264,-0.2519296687280274,0
1154,0.04615999999999998,4.99972120164681,-0.256977078958209,-0.2450158221289547,0
1155,0.04620000000000002,4.99972120164681,-0.25105886389965837,-0.23908851677215828,0
1156,0.04624000000000006,5.000049991798719,-0.2444830693377189,-0.23250380384594277,0
1157,0.0462800000000001,5.000378781950543,-0.23889364391675078,-0.22690563180440101,0
1158,0.04631999999999992,5.000378781950543,-0.2316602697835834,-0.2196636826023342,0
1159,0.04635999999999996,5.000049991798719,-0.22639963400865865,-0.2143946431163975,0
1160,0.0464,5.000378781950543,-0.2201526289804009,-0.208139405539473,0
1161,0.04644000000000004,5.000378781950543,-0.21357683416050455,-0.20155554913596047,0
1162,0.04648000000000008,5.001036362253937,-0.20930256749830378,-0.19727339165614974,0
1163,0.046519999999999895,4.99972120164681,-0.20338435208186884,-0.1913474559873205,0
1164,0.046559999999999935,4.999392411494816,-0.1997676648612418,-0.18772321887698107,0
1165,0.046599999999999975,4.99972120164681,-0.19417823912431548,-0.1821264134087504,0
1166,0.046640000000000015,4.99972120164681,-0.1895751826056553,-0.17751614711118263,0
1167,0.046680000000000055,5.000049991798719,-0.18530091581456487,-0.17323484028583544,0
1168,0.046720000000000095,5.000049991798719,-0.18201301826740535,-0.16994007223959262,0
1169,0.04675999999999991,4.99972120164681,-0.17839633094992902,-0.16631668374700057,0
1170,0.04679999999999995,4.99972120164681,-0.17510843337441945,-0.1630222541074128,0
1171,0.04683999999999999,4.99972120164681,-0.1721493255449364,-0.1600567831102384,0
1172,0.04688000000000003,5.000049991798719,-0.1695190074651277,-0.1574202705427571,0
1173,0.04692000000000007,5.000049991798719,-0.16655989961505047,-0.1544551366669444,0
1174,0.04696000000000011,5.000049991798719,-0.16425837127968446,-0.15214775054798865,0
1175,0.04699999999999993,5.000378781950543,-0.16129926341025752,-0.1491829529156189,0
1176,0.04703999999999997,5.000378781950543,-0.1599841043536892,-0.1478622718935524,0
1177,0.04708000000000001,4.99972120164681,-0.15801136576481256,-0.14588417891171962,0
1178,0.04712000000000005,4.99972120164681,-0.15636741693706202,-0.14423504303695533,0
1179,0.04716000000000009,5.000049991798719,-0.15472346810596177,-0.14258607427649095,0
1180,0.04719999999999991,5.000049991798719,-0.1517643602015455,-0.1396221133303781,0
1181,0.04723999999999995,4.99972120164681,-0.15110678066575872,-0.13895984740889422,0
1182,0.04727999999999999,5.000049991798719,-0.1481476727480983,-0.13599621952818536,0
1183,0.04732000000000003,5.000378781950543,-0.1468325136701073,-0.13467670667476495,0
1184,0.04736000000000007,5.000049991798719,-0.14551735458997894,-0.13335735977012114,0
1185,0.04740000000000011,5.000378781950543,-0.14420219550771413,-0.13203817857587774,0
1186,0.04743999999999993,4.99972120164681,-0.14190066710861254,-0.12973279353728878,0
1187,0.04747999999999997,4.99972120164681,-0.14091429779271097,-0.12874273281268062,0
1188,0.04752000000000001,5.000049991798719,-0.13894155915730816,-0.12676646775598038,0
1189,0.04756000000000005,4.99972120164681,-0.1369688205171084,-0.12479036743686317,0
1190,0.04760000000000009,5.000049991798719,-0.1336809227727903,-0.12149927250932469,0
1191,0.047639999999999905,5.000049991798719,-0.1323657636713375,-0.12018108047201564,0
1192,0.047679999999999945,5.001036362253937,-0.13170818411981328,-0.11952063198202006,0
1193,0.047719999999999985,4.999392411494816,-0.1290778659083996,-0.11688760857789776,0
1194,0.047760000000000025,4.99972120164681,-0.12874907613137498,-0.1165562771006663,0
1195,0.047800000000000065,5.000378781950543,-0.12743391702194856,-0.11523873952863872,0
1196,0.047840000000000105,5.000378781950543,-0.12546117835382642,-0.11326378537899368,0
1197,0.04787999999999992,4.99972120164681,-0.12480359879672413,-0.11260415306329175,0
1198,0.04791999999999996,5.000378781950543,-0.12315964990164728,-0.11095831387276006,0
1199,0.04796,4.99972120164681,-0.12283086012223408,-0.11062779599963901,0
1200,0.04800000000000004,5.000049991798719,-0.12217328056301004,-0.10996865028544162,0
1201,0.04804000000000008,4.99972120164681,-0.12184449078319924,-0.10963845602476957,0
1202,0.0480799999999999,5.000049991798719,-0.12151570100325589,-0.10930842317184852,0
1203,0.04811999999999994,4.99972120164681,-0.12151570100325589,-0.10930734123892394,0
1204,0.04815999999999998,4.99972120164681,-0.12020054188215752,-0.10799126105552576,0
1205,0.04820000000000002,5.000378781950543,-0.12118691122318002,-0.1089768699338508,0
1206,0.04824000000000006,4.99972120164681,-0.12283086012223408,-0.1106202186971979,0
1207,0.0482800000000001,4.99972120164681,-0.12315964990164728,-0.11094856839369771,0
1208,0.04831999999999992,5.000707572102282,-0.12480359879672413,-0.11259223698287762,0
1209,0.04835999999999996,4.999392411494816,-0.12578996813217858,-0.11357848551209848,0
1210,0.0484,5.000049991798719,-0.1277627067995044,-0.11555126259392923,0
1211,0.04844000000000004,4.999392411494816,-0.1297354454620503,-0.11752419861122637,0
1212,0.04848000000000008,4.999063621342738,-0.1323657636713375,-0.12015487283345594,0
1213,0.0485199999999999,5.000049991798719,-0.1349960818721146,-0.12278570542175268,0
1214,0.04855999999999994,5.001036362253937,-0.13861276938427458,-0.12640306541084173,0
1215,0.04859999999999998,5.000378781950543,-0.14124308756481152,-0.12903421387099917,0
1216,0.04864000000000002,5.000049991798719,-0.14387340573681423,-0.13166551983705077,0
1217,0.04868000000000006,4.99972120164681,-0.14584614436021137,-0.13363940347912198,0
1218,0.0487200000000001,5.000707572102282,-0.14913404205518838,-0.1369286031260594,0
1219,0.048759999999999915,5.000049991798719,-0.15307951927151348,-0.14087553893476124,0
1220,0.048799999999999955,4.999392411494816,-0.15538104763880373,-0.1431786822404485,0
1221,0.048839999999999995,4.99972120164681,-0.15965531458921167,-0.14745472017935612,0
1222,0.048880000000000035,5.000378781950543,-0.1619568429377366,-0.14975817526904914,0
1223,0.048920000000000075,5.000049991798719,-0.16458716104228271,-0.15239057556848543,0
1224,0.048960000000000115,4.99972120164681,-0.16787505866087404,-0.15568071053523513,0
1225,0.04899999999999993,5.000378781950543,-0.17017658698588745,-0.15798463105971844,0
1226,0.04903999999999997,5.000049991798719,-0.1721493255449364,-0.15995991636609344,0
1227,0.04908000000000001,4.99972120164681,-0.17576601289060007,-0.16357930470199067,0
1228,0.04912000000000005,4.999392411494816,-0.1767523821638599,-0.1645685289019537,0
1229,0.04916000000000009,4.99972120164681,-0.18036906948875936,-0.16818822478210327,0
1230,0.04919999999999991,5.000378781950543,-0.18398575679732287,-0.17180807396506106,0
1231,0.04923999999999995,5.001365152405508,-0.18530091581456487,-0.17312654786496312,0
1232,0.04927999999999999,5.000707572102282,-0.1882600235954478,-0.17608912322442302,0
1233,0.04932000000000003,5.000049991798719,-0.1895751826056553,-0.17740790219530958,0
1234,0.04936000000000007,5.000049991798719,-0.1922055006195703,-0.1800419922367301,0
1235,0.04940000000000011,5.000049991798719,-0.19516460837485777,-0.18300502376961794,0
1236,0.04943999999999993,5.000049991798719,-0.19713734687227985,-0.1849818374765523,0
1237,0.04947999999999997,4.99972120164681,-0.19943887511309688,-0.18728759203916465,0
1238,0.04952000000000001,5.000378781950543,-0.20338435208186884,-0.19123744612094476,0
1239,0.04956000000000005,5.001036362253937,-0.2046995110671092,-0.19255713268789987,0
1240,0.04960000000000009,5.000049991798719,-0.20732982903105923,-0.19519212837833388,0
1241,0.049639999999999906,5.000049991798719,-0.20930256749830378,-0.19716969439146798,0
1242,0.049679999999999946,5.000049991798719,-0.21061772647374233,-0.1984898304054175,0
1243,0.049719999999999986,4.999392411494816,-0.21357683416050455,-0.20145406429511228,0
1244,0.049760000000000026,5.001365152405508,-0.21620715209501734,-0.204089657267369,0
1245,0.049800000000000066,4.99972120164681,-0.21785110079965114,-0.20573902951354245,0
1246,0.049840000000000106,5.000378781950543,-0.2208102084593851,-0.20870370888619585,0
1247,0.049879999999999924,5.000049991798719,-0.2211389981986721,-0.20903821817597107,0
1248,0.049919999999999964,5.000049991798719,-0.22278294689305583,-0.21068803392321075,0
1249,0.049960000000000004,5.000049991798719,-0.2240981058461004,-0.21200920709489388,0
1250,0.050000000000000044,5.000378781950543,-0.22639963400865865,-0.21431689630390913,0
1251,0.050040000000000084,5.000378781950543,-0.22870116216450587,-0.21662473199469431,0
1252,0.0500799999999999,4.999392411494816,-0.22902995190050734,-0.2169599754134094,0
1253,0.05011999999999994,4.99972120164681,-0.23067390057845844,-0.21861052357978214,0
1254,0.05015999999999998,5.000049991798719,-0.23133148004867887,-0.21927484800070826,0
1255,0.05020000000000002,5.000378781950543,-0.2316602697835834,-0.21961052780382703,0
1256,0.05024000000000006,4.99972120164681,-0.23231784925298088,-0.22027514211282567,0
1257,0.0502800000000001,5.000707572102282,-0.23363300819012922,-0.22159748031349982,0
1258,0.05031999999999992,5.000378781950543,-0.23396179792407312,-0.22193359338609714,0
1259,0.05035999999999996,5.000049991798719,-0.23363300819012922,-0.22161227071580766,0
1260,0.0504,5.000049991798719,-0.23363300819012922,-0.22161988115301232,0
1261,0.05044000000000004,5.000378781950543,-0.23231784925298088,-0.22031247567384987,0
1262,0.05048000000000008,5.000049991798719,-0.23231784925298088,-0.22032037179853517,0
1263,0.0505199999999999,5.000378781950543,-0.2303451108431424,-0.21835567182469215,0
1264,0.05055999999999994,4.99972120164681,-0.22870116216450587,-0.21671990353667034,0
1265,0.05059999999999998,5.000049991798719,-0.2270572134824429,-0.21508427684185394,0
1266,0.05064000000000002,5.000049991798719,-0.22508447505944684,-0.21312000164345826,0
1267,0.05068000000000006,5.000049991798719,-0.22311173663152228,-0.21115586731692387,0
1268,0.0507200000000001,5.000707572102282,-0.22146778793782235,-0.20952066323955962,0
1269,0.050759999999999916,5.000049991798719,-0.21817989054016812,-0.20624165061006738,0
1270,0.050799999999999956,5.000378781950543,-0.21554957261220803,-0.2036203572377073,0
1271,0.050839999999999996,5.000049991798719,-0.21259046493281109,-0.20067041353569673,0
1272,0.050880000000000036,5.000378781950543,-0.20930256749830378,-0.19739181913345188,0
1273,0.050920000000000076,4.99972120164681,-0.2053570905589132,-0.19345578391303753,0
1274,0.050960000000000116,5.000049991798719,-0.20174040334725885,-0.18984867673766415,0
1275,0.050999999999999934,5.000378781950543,-0.19713734687227985,-0.18525533824562176,0
1276,0.051039999999999974,5.001036362253937,-0.19352065962327597,-0.18164850655432596,0
1277,0.051080000000000014,5.000707572102282,-0.18891760310082228,-0.1770554427912388,0
1278,0.051120000000000054,5.000378781950543,-0.18431454655183616,-0.17246251582894143,0
1279,0.051160000000000094,5.000049991798719,-0.17839633094992902,-0.16655456626549112,0
1280,0.05119999999999991,5.000378781950543,-0.17313569482264318,-0.1613043322516635,0
1281,0.05123999999999995,4.99972120164681,-0.16984779722557486,-0.15802697246508154,0
1282,0.05127999999999999,5.001036362253937,-0.16425837127968446,-0.15244821964753216,0
1283,0.05132000000000003,5.000049991798719,-0.1583401555299606,-0.14654081196363555,0
1284,0.05136000000000007,5.000707572102282,-0.15307951927151348,-0.14129111832694435,0
1285,0.05140000000000011,4.998406041038327,-0.14749009320937,-0.13571276905974486,0
1286,0.05143999999999993,4.999063621342738,-0.14222945688031302,-0.13046334331490209,0
1287,0.05147999999999997,5.002351522859708,-0.1379551898378077,-0.1262004202607923,0
1288,0.05152000000000001,4.99972120164681,-0.1333521329976266,-0.12160884042693398,0
1289,0.05156000000000005,5.001036362253937,-0.12743391702194856,-0.11570223408809324,0
1290,0.05160000000000009,5.001036362253937,-0.12381722946007585,-0.11209728840500768,0
1291,0.05163999999999991,5.000378781950543,-0.11625506450615032,-0.10454699718210861,0
1292,0.05167999999999995,5.000049991798719,-0.11329595646164246,-0.10159989433001626,0
1293,0.05171999999999999,5.001036362253937,-0.10573379141039972,-0.09404986554059339,0
1294,0.05176000000000003,5.000707572102282,-0.10178831396466272,-0.09011665503296762,0
1295,0.05180000000000007,4.99972120164681,-0.09915799565696932,-0.08749873394544155,0
1296,0.05184000000000011,5.000049991798719,-0.09455493859824966,-0.08290820399359494,0
1297,0.051879999999999926,5.000049991798719,-0.08995188151378213,-0.07831780350624562,0
1298,0.051919999999999966,4.99972120164681,-0.08567761419804089,-0.07405632188030348,0
1299,0.051960000000000006,5.000378781950543,-0.08107455706402487,-0.06946617913010505,0
1300,0.052000000000000046,5.000378781950543,-0.07745786929788322,-0.06586253404204595,0
1301,0.052040000000000086,5.000049991798719,-0.07351239171679176,-0.06193022703246365,0
1302,0.052079999999999904,5.000378781950543,-0.07055328351864205,-0.058984416897332415,0
1303,0.052119999999999944,5.000707572102282,-0.06726538550831525,-0.055709944038543624,0
1304,0.052159999999999984,5.000378781950543,-0.0626623282719858,-0.05112043863821486,0
1305,0.052200000000000024,5.000049991798719,-0.06167595886088427,-0.05014774734245958,0
1306,0.052240000000000064,5.000707572102282,-0.05805927101017365,-0.04654486348026937,0
1307,0.052280000000000104,5.000049991798719,-0.05510016275699865,-0.04359968468156922,0
1308,0.05231999999999992,5.000049991798719,-0.05312742391571186,-0.04164100035245,0
1309,0.05235999999999996,5.001036362253937,-0.050168315645034,-0.03869607124233454,0
1310,0.0524,5.000378781950543,-0.047537997173404054,-0.03608005616933402,0
1311,0.05244000000000004,5.000378781950543,-0.04589404812443025,-0.03445053434570544,0
1312,0.05248000000000008,5.000049991798719,-0.04425009907222392,-0.03282113593319219,0
1313,0.0525199999999999,5.000049991798719,-0.04161978058197445,-0.03020549108360543,0
1314,0.05255999999999994,5.000707572102282,-0.03931825189622702,-0.02791875862510873,0
1315,0.05259999999999998,5.000378781950543,-0.03767430283110791,-0.026289727958449693,0
1316,0.05264000000000002,5.000378781950543,-0.035701563948709644,-0.02433202922935157,0
1317,0.05268000000000006,5.000049991798719,-0.0340576148765004,-0.022703241647929362,0
1318,0.0527200000000001,4.999392411494816,-0.03208487598559902,-0.020745785166970676,0
1319,0.05275999999999992,5.000378781950543,-0.029783347273691016,-0.018459659364858605,0
1320,0.05279999999999996,5.000049991798719,-0.028468188006913683,-0.017160023087463394,0
1321,0.05284,5.000378781950543,-0.026495449102891075,-0.015202926831184294,0
1322,0.05288000000000004,5.000049991798719,-0.025180289830972882,-0.013903529443195506,0
1323,0.05292000000000008,5.000049991798719,-0.02320755091924319,-0.011946671228461048,0
1324,0.052959999999999896,5.000049991798719,-0.0228787611001723,-0.01163388049539299,0
1325,0.052999999999999936,5.000049991798719,-0.021234812002893247,-0.010006048448134963,0
1326,0.053039999999999976,5.000378781950543,-0.01860449344057817,-0.007391964473945245,0
1327,0.053080000000000016,5.000049991798719,-0.017618123977595282,-0.006421946710359949,0
1328,0.053120000000000056,5.000049991798719,-0.014987805404005308,-0.0038080965196957695,0
1329,0.053160000000000096,4.99972120164681,-0.015316595226152155,-0.004153470979647023,0
1330,0.053199999999999914,4.99972120164681,-0.01301506646843685,-0.0018686426850660909,0
1331,0.053239999999999954,5.000049991798719,-0.011042327528263687,8.728039708405522e-05,0
1332,0.053279999999999994,4.99972120164681,-0.009727168232258263,0.001385508871504959,0
1333,0.053320000000000034,5.000378781950543,-0.007425639459330238,0.003669992291493729,0
1334,0.053360000000000074,5.000707572102282,-0.007096849634115457,0.003981622665493956,0
1335,0.053400000000000114,5.000378781950543,-0.006110480157705198,0.0049507190263596845,0
1336,0.05343999999999993,5.001036362253937,-0.004466531027802631,0.006577281811192437,0
1337,0.05347999999999997,4.99972120164681,-0.0031513717215847087,0.00787494197847255,0
1338,0.05352000000000001,5.000378781950543,-0.002165002240582567,0.008843699963171747,0
1339,0.05356000000000005,5.000378781950543,-0.0018362124133269458,0.009154766374101175,0
1340,0.05360000000000009,5.000378781950543,-0.001178632758433426,0.009794511130819195,0
1341,0.05363999999999991,5.000049991798719,-0.00019226327513760522,0.01076293467308942,0
1342,0.05367999999999995,5.000378781950543,0.0007941062093044515,0.01173124761347355,0
1343,0.05371999999999999,5.000378781950543,0.0024380553525874815,0.013357030050296037,0
1344,0.05376000000000003,4.99972120164681,0.004410794328726292,0.015311492599006604,0
1345,0.05380000000000007,5.000378781950543,0.004739584158527918,0.015621896722645856,0
1346,0.05384000000000011,4.99972120164681,0.004739584158527918,0.015603402180774939,0
1347,0.05387999999999993,5.000378781950543,0.006054743479005864,0.01689995856748408,0
1348,0.05391999999999997,5.000378781950543,0.007041112970698912,0.017867617178099593,0
1349,0.05396000000000001,5.000049991798719,0.008027482463535476,0.01883516828791021,0
1350,0.05400000000000005,5.000378781950543,0.009013851957515154,0.01980261234304037,0
1351,0.05404000000000009,5.000707572102282,0.009342641789095676,0.020112370126830398,0
1352,0.054079999999999906,5.000378781950543,0.010986590948902406,0.021737181077538553,0
1353,0.054119999999999946,5.000049991798719,0.01065780111668721,0.021389147323293056,0
1354,0.054159999999999986,4.99972120164681,0.010986590948902406,0.021698587969658928,0
1355,0.054200000000000026,4.99972120164681,0.01295932994485767,0.02365187296578808,0
1356,0.054240000000000066,5.000378781950543,0.01328811977796078,0.02396110443565347,0
1357,0.054280000000000106,5.000707572102282,0.013945699444547363,0.02459902182687132,0
1358,0.054319999999999924,4.99972120164681,0.015918438447348998,0.02655199509416248,0
1359,0.054359999999999964,4.99972120164681,0.016247228281592724,0.026860916185444533,0
1360,0.054400000000000004,5.000378781950543,0.01789117745471111,0.028484894061535343,0
1361,0.054440000000000044,5.000049991798719,0.01756238761983417,0.028136030829638142,0
1362,0.054480000000000084,5.000378781950543,0.01789117745471111,0.028444645622256542,0
1363,0.0545199999999999,5.000378781950543,0.018548757124844717,0.029081949060321882,0
1364,0.05455999999999994,5.000049991798719,0.019863916466630674,0.030376731436325577,0
1365,0.05459999999999998,5.000049991798719,0.02085028597429857,0.03134262370125249,0
1366,0.05464000000000002,5.000378781950543,0.02216544531962629,0.032637205984288375,0
1367,0.05468000000000006,5.000049991798719,0.02216544531962629,0.03261652956049926,0
1368,0.0547200000000001,5.000378781950543,0.023480604666976643,0.033910913581255586,0
1369,0.05475999999999992,5.000049991798719,0.023809394504130166,0.03421882964833417,0
1370,0.05479999999999996,5.000378781950543,0.024795764016348754,0.03518422740694549,0
1371,0.05484,4.99972120164681,0.025124553854007567,0.03549194796803079,0
1372,0.05488000000000004,5.000049991798719,0.026110923367741706,0.03645715114340134,0
1373,0.05492000000000008,5.000707572102282,0.0264397132059056,0.036764678043191085,0
1374,0.0549599999999999,5.000049991798719,0.027426082721154613,0.03772968848243116,0
1375,0.05499999999999994,5.000049991798719,0.029070031915759978,0.039352182926357865,0
1376,0.05503999999999998,5.000049991798719,0.029070031915759978,0.039330632964556606,0
1377,0.05508000000000002,5.000378781950543,0.029398821755059465,0.03963777809505392,0
1378,0.05512000000000006,4.999392411494816,0.029398821755059465,0.039616039103939654,0
1379,0.0551600000000001,5.000378781950543,0.031042770953448276,0.04123815549415072,0
1380,0.055199999999999916,5.000049991798719,0.0313715607935042,0.04154501917476644,0
1381,0.055239999999999956,4.99972120164681,0.03202914047399413,0.042180579810899205,0
1382,0.055279999999999996,5.000378781950543,0.033015509995673945,0.04314483787018805,0
1383,0.055320000000000036,5.000378781950543,0.03268672015498804,0.04279384461649105,0
1384,0.055360000000000076,5.000049991798719,0.033015509995673945,0.0431003395614829,0
1385,0.055400000000000116,5.000049991798719,0.03433066935967702,0.044393113015562286,0
1386,0.055439999999999934,4.99972120164681,0.033673089677423634,0.04371305687811797,0
1387,0.055479999999999974,5.000049991798719,0.03564582872569445,0.045663229395394495,0
1388,0.055520000000000014,5.000378781950543,0.036303408409458296,0.04629815294231926,0
1389,0.055560000000000054,4.99972120164681,0.036303408409458296,0.04627540767008165,0
1390,0.055600000000000094,5.000049991798719,0.037618567778495635,0.047567733102409804,0
1391,0.05563999999999991,5.000378781950543,0.03696098809372539,0.04688723128785949,0
1392,0.05567999999999995,4.99972120164681,0.037618567778495635,0.047521801121645474,0
1393,0.05571999999999999,5.000378781950543,0.0392625169926218,0.04914265323590919,0
1394,0.05576000000000003,5.000049991798719,0.03959130683582415,0.04944825920314916,0
1395,0.05580000000000007,5.000049991798719,0.0392625169926218,0.04909619918110744,0
1396,0.05584000000000011,5.000049991798719,0.04024888652260587,0.05005921270303565,0
1397,0.05587999999999993,4.999392411494816,0.04024888652260587,0.05003577133985404,0
1398,0.05591999999999997,4.99972120164681,0.040577676366185214,0.05034103493963943,0
