,seconds,Trig,EMG_amplitude,EMG_amplitude_filter,peaks
0,0.0,4.99972120164681,-0.05181226468559495,-0.05121870158351128,0
1,4.0000000000040004e-05,5.000049991798719,-0.05148347487774181,-0.05098015650164802,0
2,8.000000000008001e-05,5.000378781950543,-0.05082589526164695,-0.05041272902382728,0
3,0.00011999999999989797,5.000378781950543,-0.05049710545340523,-0.050173998231530105,0
4,0.00015999999999993797,5.000378781950543,-0.0498395258365333,-0.049606383974154615,0
5,0.00019999999999997797,5.000378781950543,-0.04951073602790314,-0.04936746533495506,0
6,0.00024000000000001798,5.000049991798719,-0.050168315645034,-0.05011482139833919,0
7,0.000280000000000058,5.000707572102282,-0.04951073602790314,-0.04954692297168446,0
8,0.000320000000000098,5.000378781950543,-0.0491819462191435,-0.049307718565541156,0
9,0.00035999999999991594,4.99972120164681,-0.0498395258365333,-0.050054787266127394,0
10,0.00039999999999995595,5.000707572102282,-0.0498395258365333,-0.05014417949887186,0
11,0.00043999999999999595,5.000378781950543,-0.05082589526164695,-0.0512198437757793,0
12,0.00048000000000003595,5.000378781950543,-0.05082589526164695,-0.051309040716662584,0
13,0.000520000000000076,5.000049991798719,-0.05115468506975916,-0.05172692902533197,0
14,0.0005599999999998939,4.99972120164681,-0.05214105449331856,-0.052802297980256443,0
15,0.0005999999999999339,5.000049991798719,-0.05148347487774181,-0.05223361839854182,0
16,0.0006399999999999739,5.000378781950543,-0.05214105449331856,-0.05297999802272746,0
17,0.0006800000000000139,5.000378781950543,-0.05279863410837703,-0.0537262770939573,0
18,0.0007200000000000539,5.000049991798719,-0.05214105449331856,-0.053157295856019936,0
19,0.0007600000000000939,5.000049991798719,-0.053456213722917104,-0.05456095185765356,0
20,0.0007999999999999119,5.000378781950543,-0.053456213722917104,-0.05464934649914946,0
21,0.0008399999999999519,4.99972120164681,-0.053456213722917104,-0.05473763848524096,0
22,0.0008799999999999919,5.000378781950543,-0.053456213722917104,-0.054825827291656234,0
23,0.0009200000000000319,5.000378781950543,-0.053456213722917104,-0.05491391239472221,0
24,0.0009600000000000719,5.000049991798719,-0.053456213722917104,-0.05500189327137004,0
25,0.001000000000000112,5.000378781950543,-0.054771372950441696,-0.056404928626665234,0
26,0.0010399999999999299,4.99972120164681,-0.054771372950441696,-0.05649269948371462,0
27,0.0010799999999999699,5.000049991798719,-0.05444258314375501,-0.05625157474213268,0
28,0.0011200000000000099,5.000707572102282,-0.05542895256342596,-0.05732550291436635,0
29,0.0011600000000000499,4.999392411494816,-0.05575774236972354,-0.05774174464071872,0
30,0.0012000000000000899,4.99972120164681,-0.05542895256342596,-0.057500299402639066,0
31,0.0012399999999999078,5.000707572102282,-0.05608653217589139,-0.05824511571279904,0
32,0.0012799999999999478,5.000049991798719,-0.05674411178783788,-0.05898982363387791,0
33,0.0013199999999999878,5.000378781950543,-0.05805927101017365,-0.060392002259398246,0
34,0.0013600000000000279,5.000378781950543,-0.05707290159361651,-0.05949254282335067,0
35,0.0014000000000000679,4.99972120164681,-0.05838806081543309,-0.0608945020869386,0
36,0.0014400000000001079,5.000049991798719,-0.059374430230432304,-0.06196756108957707,0
37,0.0014799999999999258,5.000378781950543,-0.059045640425562415,-0.061725349903495215,0
38,0.0015199999999999658,4.99972120164681,-0.058716850620562686,-0.06148302723439327,0
39,0.0015600000000000058,5.000049991798719,-0.05838806081543309,-0.06124059256891785,0
40,0.0016000000000000458,5.000049991798719,-0.058716850620562686,-0.06165562500479561,0
41,0.0016400000000000858,5.000378781950543,-0.059045640425562415,-0.062070544419671574,0
42,0.0016799999999999038,5.000049991798719,-0.06003200983978245,-0.0631429299116319,0
43,0.0017199999999999438,5.000378781950543,-0.06036079964426265,-0.06355762175115968,0
44,0.0017599999999999838,4.99972120164681,-0.06003200983978245,-0.06331461942919037,0
45,0.0018000000000000238,5.000049991798719,-0.059045640425562415,-0.062413922435818545,0
46,0.0018400000000000638,4.99972120164681,-0.059374430230432304,-0.06282826909147138,0
47,0.0018800000000001038,5.000378781950543,-0.059703220035172325,-0.06324249966925527,0
48,0.0019199999999999218,4.99972120164681,-0.06036079964426265,-0.06398540346671071,0
49,0.0019599999999999618,5.000378781950543,-0.06003200983978245,-0.06374182075971667,0
50,0.0020000000000000018,5.000049991798719,-0.060689589448612954,-0.06448448986969908,0
51,0.0020400000000000418,5.000049991798719,-0.06036079964426265,-0.0642406714654614,0
52,0.002080000000000082,4.99972120164681,-0.06036079964426265,-0.06432552426058538,0
53,0.0021199999999998997,4.99972120164681,-0.059045640425562415,-0.06309509872883207,0
54,0.0021599999999999397,4.99972120164681,-0.059045640425562415,-0.06317971280517995,0
55,0.0021999999999999797,5.000049991798719,-0.059703220035172325,-0.06392178637888857,0
56,0.0022400000000000198,4.99972120164681,-0.059374430230432304,-0.06367736992512509,0
57,0.0022800000000000598,5.000378781950543,-0.06003200983978245,-0.06441920177223916,0
58,0.0023200000000000998,5.000049991798719,-0.059045640425562415,-0.06351696298326784,0
59,0.0023599999999999177,5.000049991798719,-0.05838806081543309,-0.06294339188736264,0
60,0.0023999999999999577,4.999063621342738,-0.059045640425562415,-0.06368485740298069,0
61,0.0024399999999999977,5.000049991798719,-0.059045640425562415,-0.06376862020282718,0
62,0.0024800000000000377,5.000049991798719,-0.059045640425562415,-0.06385225940093392,0
63,0.0025200000000000777,4.99972120164681,-0.057730481204784426,-0.06262061528123997,0
64,0.0025599999999998957,5.000049991798719,-0.05838806081543309,-0.06336158540148684,0
65,0.0025999999999999357,5.000049991798719,-0.05838806081543309,-0.06344485082596114,0
66,0.0026399999999999757,4.99972120164681,-0.05805927101017365,-0.06319920086724434,0
67,0.0026800000000000157,5.000378781950543,-0.057730481204784426,-0.06295342483849396,0
68,0.0027200000000000557,5.000378781950543,-0.05838806081543309,-0.0636938916647465,0
69,0.0027600000000000957,5.000049991798719,-0.057730481204784426,-0.0631190722183819,0
70,0.0027999999999999137,5.000378781950543,-0.05838806081543309,-0.06385928445256168,0
71,0.0028399999999999537,4.99972120164681,-0.059045640425562415,-0.06459936865689302,0
72,0.0028799999999999937,4.999392411494816,-0.059374430230432304,-0.065010534538922,0
73,0.0029200000000000337,5.000049991798719,-0.059045640425562415,-0.06476399180732209,0
74,0.0029600000000000737,5.001036362253937,-0.058716850620562686,-0.06451731958573,0
75,0.0029999999999998916,5.000049991798719,-0.057730481204784426,-0.06361293777840213,0
76,0.0030399999999999316,4.999392411494816,-0.059374430230432304,-0.06533874395333188,0
77,0.0030799999999999716,5.000049991798719,-0.059045640425562415,-0.06509168035525305,0
78,0.0031200000000000117,4.99972120164681,-0.05838806081543309,-0.06451569552699603,0
79,0.0031600000000000517,5.000049991798719,-0.06003200983978245,-0.06624110742677064,0
80,0.0032000000000000917,5.000049991798719,-0.059374430230432304,-0.06566485830577529,0
81,0.0032399999999999096,4.99972120164681,-0.059703220035172325,-0.06607484573208632,0
82,0.0032799999999999496,5.000049991798719,-0.059703220035172325,-0.06615591000807562,0
83,0.0033199999999999896,5.000049991798719,-0.058716850620562686,-0.0652504710459964,0
84,0.0033600000000000296,5.000049991798719,-0.06003200983978245,-0.06664642641733651,0
85,0.0034000000000000696,5.000378781950543,-0.058716850620562686,-0.06541192857380693,0
86,0.0034400000000001096,5.000378781950543,-0.06003200983978245,-0.06680761391720301,0
87,0.0034799999999999276,5.000049991798719,-0.059703220035172325,-0.06655921451111331,0
88,0.0035199999999999676,5.001036362253937,-0.058716850620562686,-0.06565309929617301,0
89,0.0035600000000000076,5.000049991798719,-0.05838806081543309,-0.06540442701961872,0
90,0.0036000000000000476,5.000378781950543,-0.06003200983978245,-0.06712835643016365,0
91,0.0036400000000000876,4.99972120164681,-0.05707290159361651,-0.06424909095749033,0
92,0.0036799999999999056,4.999392411494816,-0.06003200983978245,-0.0672879038950903,0
93,0.0037199999999999456,5.000707572102282,-0.059045640425562415,-0.066381100621863,0
94,0.0037599999999999856,5.000378781950543,-0.059045640425562415,-0.06646052774500974,0
95,0.0038000000000000256,5.000378781950543,-0.059374430230432304,-0.06686860518875887,0
96,0.0038400000000000656,5.000378781950543,-0.059045640425562415,-0.0666189630730675,0
97,0.0038800000000001056,5.000049991798719,-0.060689589448612954,-0.06834191937115608,0
98,0.0039199999999999235,5.000049991798719,-0.059045640425562415,-0.06677683674556187,0
99,0.0039599999999999635,4.99972120164681,-0.059703220035172325,-0.0675131414126089,0
100,0.0040000000000000036,5.000049991798719,-0.059374430230432304,-0.06726293486385819,0
101,0.0040400000000000436,5.000707572102282,-0.06036079964426265,-0.06832774527181541,0
102,0.0040800000000000836,5.000049991798719,-0.060689589448612954,-0.06873483334903471,0
103,0.0041199999999999015,5.000049991798719,-0.06036079964426265,-0.06848419863792432,0
104,0.0041599999999999415,5.000378781950543,-0.06036079964426265,-0.06856221009419339,0
105,0.0041999999999999815,5.000707572102282,-0.059703220035172325,-0.0679824978480941,0
106,0.0042400000000000215,5.000049991798719,-0.06003200983978245,-0.06838901046714972,0
107,0.0042800000000000615,5.000049991798719,-0.059703220035172325,-0.0681377984742169,0
108,0.0043200000000001015,5.000049991798719,-0.059045640425562415,-0.06755765122034324,0
109,0.0043599999999999195,5.000049991798719,-0.059374430230432304,-0.06796372747289033,0
110,0.0043999999999999595,5.000378781950543,-0.06036079964426265,-0.06902723697528083,0
111,0.0044399999999999995,5.000049991798719,-0.059703220035172325,-0.06844665064564082,0
112,0.0044800000000000395,5.000049991798719,-0.059045640425562415,-0.06786591705744886,0
113,0.0045200000000000795,5.000378781950543,-0.059045640425562415,-0.06794261537298735,0
114,0.0045599999999998975,5.000049991798719,-0.06036079964426265,-0.06933432475457986,0
115,0.0045999999999999375,5.000049991798719,-0.059703220035172325,-0.06875314671005428,0
116,0.0046399999999999775,5.000049991798719,-0.059045640425562415,-0.06817181962209075,0
117,0.0046800000000000175,5.000378781950543,-0.058716850620562686,-0.06791913285232372,0
118,0.0047200000000000575,5.000049991798719,-0.059374430230432304,-0.06865266556861764,0
119,0.0047600000000000975,5.000378781950543,-0.057730481204784426,-0.06708451927929661,0
120,0.0047999999999999154,5.000378781950543,-0.05805927101017365,-0.06748896101073684,0
121,0.0048399999999999554,4.99972120164681,-0.05805927101017365,-0.06756446168744935,0
122,0.0048799999999999955,4.99972120164681,-0.05805927101017365,-0.06763981067688139,0
123,0.0049200000000000355,5.000378781950543,-0.058716850620562686,-0.06837258715260568,0
124,0.0049600000000000755,4.99972120164681,-0.057730481204784426,-0.06746126204238027,0
125,0.004999999999999893,4.99972120164681,-0.057730481204784426,-0.06753615335360087,0
126,0.005039999999999933,5.000378781950543,-0.057730481204784426,-0.06761089123708008,0
127,0.005079999999999973,5.000049991798719,-0.05707290159361651,-0.06702789564938653,0
128,0.005120000000000013,4.99972120164681,-0.05608653217589139,-0.0661159559640181,0
129,0.005160000000000053,5.000049991798719,-0.05674411178783788,-0.06684781058724645,0
130,0.0052000000000000934,5.000707572102282,-0.057401691399265334,-0.06757951006008449,0
131,0.005239999999999911,4.99972120164681,-0.05542895256342596,-0.06568073550815344,0
132,0.005279999999999951,4.999392411494816,-0.05707290159361651,-0.0673984928182896,0
133,0.005319999999999991,5.000049991798719,-0.057730481204784426,-0.06812972428015525,0
134,0.005360000000000031,5.000707572102282,-0.05707290159361651,-0.0675456396663322,0
135,0.005400000000000071,5.001036362253937,-0.05707290159361651,-0.06761897738740412,0
136,0.005440000000000111,5.000049991798719,-0.05707290159361651,-0.06769215741047283,0
137,0.005479999999999929,5.000049991798719,-0.059703220035172325,-0.07039549775655861,0
138,0.005519999999999969,5.001365152405508,-0.056415321981929514,-0.06718046306997111,0
139,0.005560000000000009,4.999392411494816,-0.057730481204784426,-0.0685683267034752,0
140,0.005600000000000049,5.003009103162085,-0.057401691399265334,-0.0683120819356769,0
141,0.005640000000000089,4.998406041038327,-0.058716850620562686,-0.06969962640605849,0
142,0.005679999999999907,5.000378781950543,-0.059374430230432304,-0.07042943106188665,0
143,0.005719999999999947,5.001365152405508,-0.059703220035172325,-0.07083028529619419,0
144,0.005759999999999987,4.999063621342738,-0.06134716905692379,-0.07254613771908543,0
145,0.005800000000000027,4.999063621342738,-0.058716850620562686,-0.06998756124463318,0
146,0.005840000000000067,5.000049991798719,-0.06101837925283336,-0.07236066999001699,0
147,0.005880000000000107,5.000049991798719,-0.05674411178783788,-0.06815782038101709,0
148,0.005919999999999925,4.999392411494816,-0.05707290159361651,-0.06855786537859963,0
149,0.005959999999999965,4.998734831190575,-0.05608653217589139,-0.06764258808266507,0
150,0.006000000000000005,5.000049991798719,-0.05444258314375501,-0.06606956769774132,0
151,0.006040000000000045,5.000049991798719,-0.05444258314375501,-0.06614033246707321,0
152,0.006080000000000085,4.99972120164681,-0.05378500352999273,-0.06555335334272586,0
153,0.006119999999999903,5.000378781950543,-0.05279863410837703,-0.06463741972984315,0
154,0.006159999999999943,5.001036362253937,-0.05148347487774181,-0.06339253122776986,0
155,0.006199999999999983,4.99972120164681,-0.05115468506975916,-0.06313384666996948,0
156,0.006240000000000023,5.000049991798719,-0.05115468506975916,-0.06320378604484869,0
157,0.006280000000000063,4.99972120164681,-0.05181226468559495,-0.06393113876462715,0
158,0.006320000000000103,5.000049991798719,-0.05181226468559495,-0.06400074520329439,0
159,0.006359999999999921,4.99972120164681,-0.05181226468559495,-0.06407018458364656,0
160,0.006399999999999961,5.000378781950543,-0.05378500352999273,-0.06611219535834569,0
161,0.006440000000000001,4.99972120164681,-0.054113793336938706,-0.06651008925511492,0
162,0.006480000000000041,5.000049991798719,-0.05444258314375501,-0.06690781492216223,0
163,0.006520000000000081,5.000049991798719,-0.054771372950441696,-0.06730537197169113,0
164,0.006559999999999899,5.000378781950543,-0.05608653217589139,-0.0686891294361199,0
165,0.006599999999999939,4.999392411494816,-0.057401691399265334,-0.07007271750946224,0
166,0.006639999999999979,5.000378781950543,-0.056415321981929514,-0.06915460716926801,0
167,0.006680000000000019,4.99972120164681,-0.05805927101017365,-0.07086664511934689,0
168,0.006720000000000059,5.000378781950543,-0.05838806081543309,-0.0712633533099949,0
169,0.006760000000000099,5.000378781950543,-0.058716850620562686,-0.0716598905842729,0
170,0.006799999999999917,5.000378781950543,-0.058716850620562686,-0.07172746675873702,0
171,0.006839999999999957,5.000049991798719,-0.058716850620562686,-0.07179487126142717,0
172,0.006879999999999997,5.000049991798719,-0.05805927101017365,-0.07120452410622345,0
173,0.006920000000000037,4.99972120164681,-0.059374430230432304,-0.0725867433597951,0
174,0.006960000000000077,5.000049991798719,-0.057730481204784426,-0.07100968157258832,0
175,0.006999999999999895,5.000707572102282,-0.057401691399265334,-0.07074760583901102,0
176,0.007039999999999935,5.000049991798719,-0.05707290159361651,-0.07048535656855397,0
177,0.007079999999999975,5.000049991798719,-0.05608653217589139,-0.06956535378040109,0
178,0.007120000000000015,5.000049991798719,-0.054113793336938706,-0.0676588072979171,0
179,0.007160000000000055,5.000378781950543,-0.05378500352999273,-0.06739603520824215,0
180,0.007200000000000095,5.000049991798719,-0.05148347487774181,-0.06516034926936487,0
181,0.007239999999999913,5.000049991798719,-0.048853156410254436,-0.06259569814805269,0
182,0.007279999999999953,5.000049991798719,-0.047537997173404054,-0.06134603052828133,0
183,0.007319999999999993,5.000378781950543,-0.045565258314247556,-0.05943860719661741,0
184,0.007360000000000033,5.000049991798719,-0.04326372963934923,-0.05720221760054674,0
185,0.007400000000000073,5.000378781950543,-0.03964704170886384,-0.05365049194256181,0
186,0.007440000000000113,4.99972120164681,-0.0340576148765004,-0.04812585022012979,0
187,0.007479999999999931,5.000378781950543,-0.03142729635426868,-0.045560139290443266,0
188,0.007519999999999971,5.000049991798719,-0.026824238920549456,-0.041021511578494874,0
189,0.007560000000000011,5.000378781950543,-0.02320755091924319,-0.03746907507623021,0
190,0.007600000000000051,5.000049991798719,-0.020248442542986647,-0.03457403962576869,0
191,0.007640000000000091,5.000378781950543,-0.014987805404005308,-0.029377296490260316,0
192,0.007679999999999909,5.000378781950543,-0.0116999071754995,-0.02615311299527611,0
193,0.007719999999999949,4.99972120164681,-0.007425639459330238,-0.02194238039649824,0
194,0.007759999999999989,5.000049991798719,-0.003808951374948702,-0.018389047468653726,0
195,0.007800000000000029,4.99972120164681,-0.0005210531030302584,-0.015164324049152647,0
196,0.00784000000000007,4.99972120164681,0.0030956350107915753,-0.011610630141826193,0
197,0.00788000000000011,5.000378781950543,0.006383533309443135,-0.008385545063412929,0
198,0.007919999999999927,5.000378781950543,0.009342641789095676,-0.005489068478877833,0
199,0.007959999999999967,4.99972120164681,0.011972960446309217,-0.0029212000542726685,0
200,0.008000000000000007,5.000049991798719,0.014603279111640999,-0.00035314962313177933,0
201,0.008040000000000047,5.000049991798719,0.01821996728971463,0.003201452653592951,0
202,0.008080000000000087,5.000378781950543,0.02019270630239349,0.005112288430701398,0
203,0.008119999999999905,5.000378781950543,0.021836655483104705,0.00669451737306509,0
204,0.008159999999999945,4.99972120164681,0.023480604666976643,0.00827692964576053,0
205,0.008199999999999985,4.999392411494816,0.025453343691792682,0.010188315415018967,0
206,0.008240000000000025,4.99972120164681,0.025453343691792682,0.010127146142023709,0
207,0.008280000000000065,5.000378781950543,0.027097292882612076,0.011710110367845153,0
208,0.008320000000000105,4.999392411494816,0.028412452237539368,0.012964469389694255,0
209,0.008359999999999923,5.000378781950543,0.029727611594485073,0.014219013367887362,0
210,0.008399999999999963,4.99972120164681,0.029398821755059465,0.013829793424919898,0
211,0.008440000000000003,4.99972120164681,0.030713981113518377,0.01508470827440811,0
212,0.008480000000000043,5.000707572102282,0.0313715607935042,0.01568222935782622,0
213,0.008520000000000083,4.99972120164681,0.030713981113518377,0.014964777309974905,0
214,0.008559999999999901,5.000049991798719,0.030713981113518377,0.014905091485574326,0
215,0.008599999999999941,5.000049991798719,0.028412452237539368,0.012544063641881993,0
216,0.008639999999999981,5.000049991798719,0.0264397132059056,0.010512012810900195,0
217,0.008680000000000021,5.000378781950543,0.021507865646709548,0.005521040930851304,0
218,0.008720000000000061,5.000707572102282,0.01756238761983417,0.0015166263701961238,0
219,0.008760000000000101,5.000707572102282,0.011644170613713423,-0.004460339075609339,0
220,0.008799999999999919,5.000378781950543,0.006054743479005864,-0.010108326250444048,0
221,0.008839999999999959,4.999392411494816,-0.0008498429307955274,-0.01707128399691589,0
222,0.008879999999999999,4.99972120164681,-0.00874079875891258,-0.025020422155914837,0
223,0.008920000000000039,4.99972120164681,-0.01696054433496612,-0.033298160756301,0
224,0.008960000000000079,5.000049991798719,-0.024851500012672237,-0.04124691985260464,0
225,0.008999999999999897,5.000707572102282,-0.03241366580107112,-0.04886669915625888,0
226,0.009039999999999937,5.000049991798719,-0.039975831521371616,-0.05648628819244805,0
227,0.009079999999999977,5.000049991798719,-0.04589404812443025,-0.0624617376175905,0
228,0.009120000000000017,5.000378781950543,-0.05082589526164695,-0.06745062679023806,0
229,0.009160000000000057,5.000049991798719,-0.05510016275699865,-0.07178174524311334,0
230,0.009200000000000097,5.000378781950543,-0.057401691399265334,-0.07413993347533956,0
231,0.009239999999999915,5.000378781950543,-0.059703220035172325,-0.0764979300455865,0
232,0.009279999999999955,5.000378781950543,-0.060689589448612954,-0.07754057545129682,0
233,0.009319999999999995,5.000049991798719,-0.06167595886088427,-0.07858302862892536,0
234,0.009360000000000035,4.99972120164681,-0.06134716905692379,-0.0783101300801796,0
235,0.009400000000000075,5.000378781950543,-0.06036079964426265,-0.07737945913097634,0
236,0.009439999999999893,5.000049991798719,-0.059045640425562415,-0.07611980530398216,0
237,0.009479999999999933,4.999392411494816,-0.05838806081543309,-0.07551753773543511,0
238,0.009519999999999973,5.000707572102282,-0.057401691399265334,-0.07458628673398049,0
239,0.009560000000000013,5.000378781950543,-0.056415321981929514,-0.07365484182937343,0
240,0.009600000000000053,5.000049991798719,-0.05575774236972354,-0.07305199255443018,0
241,0.009640000000000093,5.000049991798719,-0.05608653217589139,-0.07343531825055023,0
242,0.009679999999999911,4.99972120164681,-0.05575774236972354,-0.07316086961682024,0
243,0.009719999999999951,4.99972120164681,-0.05575774236972354,-0.07321501580318415,0
244,0.009759999999999991,5.000707572102282,-0.056415321981929514,-0.07392654634876825,0
245,0.009800000000000031,5.000378781950543,-0.057730481204784426,-0.07529546098675484,0
246,0.009840000000000071,5.000049991798719,-0.059703220035172325,-0.07732175945042209,0
247,0.009880000000000111,5.000378781950543,-0.0626623282719858,-0.08033423127671484,0
248,0.009919999999999929,5.000049991798719,-0.06562143649826817,-0.08334650678839027,0
249,0.009959999999999969,5.000049991798719,-0.06693659570656622,-0.08471463671937411,0
250,0.010000000000000009,5.000378781950543,-0.06858054471400928,-0.08641135962984305,0
251,0.010040000000000049,4.99972120164681,-0.0715396529191989,-0.08942304466311778,0
252,0.010080000000000089,5.000378781950543,-0.07285481211811588,-0.09079058336157336,0
253,0.010119999999999907,5.000049991798719,-0.07351239171679176,-0.09150034487931394,0
254,0.010159999999999947,4.99972120164681,-0.07482755091257769,-0.0928674881634449,0
255,0.010199999999999987,4.99972120164681,-0.07482755091257769,-0.09291927417250931,0
256,0.010240000000000027,4.99972120164681,-0.07515634071119788,-0.09329965165404064,0
257,0.010280000000000067,5.000707572102282,-0.07482755091257769,-0.09302225096699711,0
258,0.010320000000000107,5.000378781950543,-0.07351239171679176,-0.09175828206796685,0
259,0.010359999999999925,5.000049991798719,-0.07285481211811588,-0.09115169370943696,0
260,0.010399999999999965,4.99972120164681,-0.07351239171679176,-0.09186006525156139,0
261,0.010440000000000005,5.000049991798719,-0.0715396529191989,-0.08993791886233635,0
262,0.010480000000000045,5.000378781950543,-0.0715396529191989,-0.08998831149894762,0
263,0.010520000000000085,5.000378781950543,-0.06989570391761903,-0.08839455512725722,0
264,0.010559999999999903,5.000378781950543,-0.06890933451510713,-0.0874581781146614,0
265,0.010599999999999943,5.000378781950543,-0.06792296511142272,-0.08652160062938476,0
266,0.010639999999999983,4.99972120164681,-0.06595022630053791,-0.08459845303558415,0
267,0.010680000000000023,4.99972120164681,-0.06364869768191721,-0.08234631470463144,0
268,0.010720000000000063,5.000049991798719,-0.06003200983978245,-0.07877881599438141,0
269,0.010760000000000103,5.000378781950543,-0.05510016275699865,-0.07389595666306048,0
270,0.01079999999999992,5.000378781950543,-0.04951073602790314,-0.06835531608209894,0
271,0.01083999999999996,5.000049991798719,-0.04293493982813261,-0.061828104205960986,0
272,0.01088,5.000378781950543,-0.035043984320212454,-0.05398553097773692,0
273,0.01092000000000004,4.99972120164681,-0.024851500012672237,-0.043841226688261514,0
274,0.01096000000000008,5.000707572102282,-0.01301506646843685,-0.032052770684508056,0
275,0.010999999999999899,5.000049991798719,-0.0015074225859438989,-0.02059290165070863,0
276,0.011039999999999939,5.000707572102282,0.011972960446309217,-0.007160090562904106,0
277,0.011079999999999979,5.000378781950543,0.024795764016348754,0.005615344177636497,0
278,0.011120000000000019,4.99972120164681,0.037618567778495635,0.01839098243418423,0
279,0.011160000000000059,5.000378781950543,0.04945500219027131,0.030180454871453197,0
280,0.011200000000000099,5.000049991798719,0.061291436764380286,0.0419701312075802,0
281,0.011239999999999917,5.000378781950543,0.07049755265605667,0.051129692801468465,0
282,0.011279999999999957,5.000378781950543,0.0787172990703113,0.05930308906003211,0
283,0.011319999999999997,5.000049991798719,0.08463551653658133,0.06517516071284284,0
284,0.011360000000000037,4.99972120164681,0.08858099486971066,0.06907469777310754,0
285,0.011400000000000077,5.000707572102282,0.09186889349424851,0.07231685986196437,0
286,0.011439999999999895,4.99972120164681,0.09351284281114798,0.0739152775751785,0
287,0.011479999999999935,4.99972120164681,0.09581437185998914,0.07617148014536247,0
288,0.011519999999999975,5.000378781950543,0.0971295313191825,0.07744151844217656,0
289,0.011560000000000015,5.000707572102282,0.09778711104951865,0.07805418251587563,0
290,0.011600000000000055,5.000378781950543,0.09877348064594688,0.078995842149085,0
291,0.011640000000000095,5.000378781950543,0.10041742997579037,0.08059528739501316,0
292,0.011679999999999913,5.000378781950543,0.10173258944188096,0.08186614884058391,0
293,0.011719999999999953,5.000378781950543,0.10534927798377816,0.08543874560765241,0
294,0.011759999999999993,5.000049991798719,0.10830838680184553,0.0883539690770791,0
295,0.011800000000000033,5.000049991798719,0.1112674956298565,0.09126939916133284,0
296,0.011840000000000073,5.000378781950543,0.11554176395451755,0.09550019552401168,0
297,0.011880000000000113,4.99972120164681,0.11915845255308817,0.09907361911745993,0
298,0.01191999999999993,5.000378781950543,0.12409030066589298,0.10396240935527779,0
299,0.01195999999999997,5.000049991798719,0.12672061967062423,0.10654987778662162,0
300,0.01200000000000001,5.000378781950543,0.13099488806995954,0.11078150308381934,0
301,0.01204000000000005,5.000049991798719,0.13494036661069325,0.11468454616149915,0
302,0.01208000000000009,4.99972120164681,0.13789947552773896,0.11760142742059004,0
303,0.012119999999999909,4.999392411494816,0.1388858451689418,0.11854577737313185,0
304,0.012159999999999949,5.000049991798719,0.140201004692246,0.11981912533944036,0
305,0.012199999999999989,5.000049991798719,0.1398722148112378,0.11944873219364793,0
306,0.012240000000000029,5.000049991798719,0.1392146350495857,0.11874975761814113,0
307,0.012280000000000069,5.000049991798719,0.13757068564758101,0.11706462201009896,0
308,0.012320000000000109,5.000049991798719,0.13428278685268735,0.11373574577204013,0
309,0.012359999999999927,4.999392411494816,0.1300085184375156,0.10942070882979574,0
310,0.012399999999999967,5.000707572102282,0.12639182979460575,0.10576346072728872,0
311,0.012440000000000007,5.000378781950543,0.12014482217344924,0.09947610286355366,0
312,0.012480000000000047,5.000707572102282,0.11554176395451755,0.0948329037667628,0
313,0.012520000000000087,5.000049991798719,0.10995233614951355,0.08920354459447508,0
314,0.012559999999999905,5.000049991798719,0.1033765387772625,0.0825880255095245,0
315,0.012599999999999945,4.99972120164681,0.09811590091487153,0.07728787573117767,0
316,0.012639999999999985,4.99972120164681,0.09088252390559022,0.07001519674299182,0
317,0.012680000000000025,4.99972120164681,0.08562188611819377,0.06471546705219614,0
318,0.012720000000000065,5.000707572102282,0.07970366864523482,0.0587583678879412,0
319,0.012760000000000105,5.000049991798719,0.07477182078178243,0.053787848680036006,0
320,0.012799999999999923,5.000378781950543,0.06918239323698341,0.04815996027050701,0
321,0.012839999999999963,5.000049991798719,0.06425054543319586,0.043189862212729635,0
322,0.012880000000000003,4.99972120164681,0.059647487508292976,0.03854876477373028,0
323,0.012920000000000043,5.000378781950543,0.056688378855200935,0.03555182747372202,0
324,0.012960000000000083,4.999063621342738,0.05274290066682373,0.03156873163102762,0
325,0.0129999999999999,4.999392411494816,0.04945500219027131,0.02824342661630573,0
326,0.01303999999999994,5.000707572102282,0.045509524034943585,0.0242607531606329,0
327,0.01307999999999998,5.000049991798719,0.041564045897676996,0.020278291080648183,0
328,0.01312000000000002,5.000049991798719,0.03959130683582415,0.018268779551630924,0
329,0.01316000000000006,5.000049991798719,0.036303408409458296,0.01494432024970327,0
330,0.0132000000000001,5.000378781950543,0.033673089677423634,0.012277652347878707,0
331,0.013239999999999919,5.000378781950543,0.031042770953448276,0.00961119627217312,0
332,0.013279999999999959,5.000378781950543,0.027754872559823354,0.0062873724552820805,0
333,0.013319999999999999,5.000378781950543,0.026110923367741706,0.004607709876917731,0
334,0.013360000000000039,4.99972120164681,0.023809394504130166,0.0022706797706393477,0
335,0.013400000000000079,4.99972120164681,0.021507865646709548,-6.613808108843142e-05,0
336,0.013439999999999896,4.99972120164681,0.01953512663099438,-0.0020739537398975633,0
337,0.013479999999999936,5.000049991798719,0.01789117745471111,-0.0037527671071001002,0
338,0.013519999999999976,5.000378781950543,0.016904807950460177,-0.004773788251027766,0
339,0.013560000000000016,5.000049991798719,0.015260858779241576,-0.006452176413508058,0
340,0.013600000000000056,4.99972120164681,0.014932068945377922,-0.006815192494942791,0
341,0.013640000000000096,5.000378781950543,0.011972960446309217,-0.00980831440451492,0
342,0.013679999999999914,5.001036362253937,0.01328811977796078,-0.008526955554822177,0
343,0.013719999999999954,5.000049991798719,0.01295932994485767,-0.008889332851764199,0
344,0.013759999999999994,4.998406041038327,0.012630540111881347,-0.009251497042787429,0
345,0.013800000000000034,4.999392411494816,0.012301750279031881,-0.00961344804212443,0
346,0.013840000000000074,4.999392411494816,0.014603279111640999,-0.007344867100582318,0
347,0.013879999999999892,4.997748460733576,0.01328811977796078,-0.008692760967955498,0
348,0.013919999999999932,5.000378781950543,0.011972960446309217,-0.010040441395881578,0
349,0.013959999999999972,5.002351522859708,0.013616909611190692,-0.008428799811722303,0
350,0.014000000000000012,4.99972120164681,0.011972960446309217,-0.010104842965551739,0
351,0.014040000000000052,4.99972120164681,0.01328811977796078,-0.008821563956765269,0
352,0.014080000000000092,5.002351522859708,0.014932068945377922,-0.007209281373736397,0
353,0.01411999999999991,5.002022732708393,0.012630540111881347,-0.009542262982666406,0
354,0.01415999999999995,5.000378781950543,0.01295932994485767,-0.009244712047607904,0
355,0.01419999999999999,5.000378781950543,0.01295932994485767,-0.009275737001367843,0
356,0.01424000000000003,5.000378781950543,0.01328811977796078,-0.008977758113144305,0
357,0.01428000000000007,5.000049991798719,0.01328811977796078,-0.009008354986342015,0
358,0.01432000000000011,5.000378781950543,0.01328811977796078,-0.009038737726978573,0
359,0.014359999999999928,4.99972120164681,0.014603279111640999,-0.007753746942417828,0
360,0.014399999999999968,5.000378781950543,0.016576018115963126,-0.005810962238666678,0
361,0.014440000000000008,5.000378781950543,0.015260858779241576,-0.007155861572304932,0
362,0.014480000000000048,5.000378781950543,0.017233597785083862,-0.005212648206546051,0
363,0.014520000000000088,5.000378781950543,0.016576018115963126,-0.005899539107665717,0
364,0.014559999999999906,5.000049991798719,0.01789117745471111,-0.004613476543509923,0
365,0.014599999999999946,5.000049991798719,0.018548757124844717,-0.003984779143169456,0
366,0.014639999999999986,4.999392411494816,0.018877546960101396,-0.0036846570274455346,0
367,0.014680000000000026,5.000378781950543,0.019863916466630674,-0.002726740646659287,0
368,0.014720000000000066,5.000378781950543,0.019863916466630674,-0.00275497913701616,0
369,0.014760000000000106,4.99972120164681,0.01953512663099438,-0.00311179278796064,0
370,0.014799999999999924,5.000049991798719,0.018548757124844717,-0.004125971396642104,0
371,0.014839999999999964,4.99972120164681,0.01821996728971463,-0.004482355585735601,0
372,0.014880000000000004,5.000049991798719,0.017233597785083862,-0.0054961046619059276,0
373,0.014920000000000044,5.001036362253937,0.015260858779241576,-0.007496008424945865,0
374,0.014960000000000084,4.999392411494816,0.014274489278030808,-0.008509327839032542,0
375,0.014999999999999902,5.000049991798719,0.012301750279031881,-0.010508801878544818,0
376,0.015039999999999942,5.000378781950543,0.009013851957515154,-0.013823220342111354,0
377,0.015079999999999982,5.000049991798719,0.007041112970698912,-0.01582226454835348,0
378,0.015120000000000022,4.99972120164681,0.004082004499051814,-0.01880746329458344,0
379,0.015160000000000062,4.99972120164681,0.001122896037706475,-0.021792447065391504,0
380,0.015200000000000102,4.99972120164681,0.0007941062093044515,-0.022146897219801655,0
381,0.01523999999999992,5.000378781950543,-0.0024937920677107622,-0.025460240822979242,0
382,0.01527999999999996,4.999392411494816,-0.00348016154833046,-0.026471840615468416,0
383,0.01532,5.000378781950543,-0.005124110680146385,-0.02814080503235835,0
384,0.01536000000000004,5.000049991798719,-0.0047953208540382625,-0.027836815453971424,0
385,0.01540000000000008,5.000378781950543,-0.005452900506126915,-0.0285189803078168,0
386,0.015439999999999898,5.000049991798719,-0.006768059808773,-0.0298585097595898,0
387,0.015479999999999938,5.000049991798719,-0.007096849634115457,-0.030211454676710825,0
388,0.015519999999999978,5.000707572102282,-0.007754429284417372,-0.030892974358671707,0
389,0.015560000000000018,5.000049991798719,-0.008412008934208556,-0.031574278979178694,0
390,0.015600000000000058,5.000049991798719,-0.007425639459330238,-0.030611419415197495,0
391,0.0156400000000001,5.000049991798719,-0.0090695885834889,-0.032278663393507497,0
392,0.015679999999999916,5.000378781950543,-0.010384747880516562,-0.033616902492962425,0
393,0.015719999999999956,5.000378781950543,-0.010384747880516562,-0.033639767250636575,0
394,0.015759999999999996,5.000049991798719,-0.014001435936796827,-0.037279105028758364,0
395,0.015800000000000036,5.000378781950543,-0.01630296469182467,-0.03960306848066551,0
396,0.015840000000000076,4.99972120164681,-0.01860449344057817,-0.04192681691415657,0
397,0.015879999999999894,5.000378781950543,-0.020577232363083744,-0.04392156052402878,0
398,0.015919999999999934,5.000049991798719,-0.024193920375685754,-0.04756003824334795,0
399,0.015959999999999974,4.999392411494816,-0.02715302873807933,-0.0505407213504814,0
400,0.016000000000000014,5.000049991798719,-0.030769716722423582,-0.05417876913821131,0
401,0.016040000000000054,4.999392411494816,-0.03372882506167206,-0.05715902236206534,0
402,0.016080000000000094,4.99972120164681,-0.0389894620834612,-0.06244058937420513,0
403,0.016119999999999912,5.000378781950543,-0.04359251945043667,-0.06706436186375275,0
404,0.016159999999999952,5.000049991798719,-0.04852436660123595,-0.07201670929777337,0
405,0.016199999999999992,4.99972120164681,-0.052469844300912574,-0.07598247247169958,0
406,0.016240000000000032,5.000049991798719,-0.05575774236972354,-0.07929044123811879,0
407,0.016280000000000072,5.000707572102282,-0.06101837925283336,-0.08457093407647727,0
408,0.016320000000000112,5.000378781950543,-0.06463506709067811,-0.08820726316344411,0
409,0.01635999999999993,5.000049991798719,-0.06825175491278114,-0.09184337756672682,0
410,0.01639999999999997,5.000707572102282,-0.07351239171679176,-0.09712322632410979,0
411,0.01644000000000001,5.000049991798719,-0.07647149990437309,-0.10010133187934199,0
412,0.01648000000000005,4.99972120164681,-0.07975939787816717,-0.10340801267910181,0
413,0.01652000000000009,4.999392411494816,-0.08238971624778989,-0.10605689937899179,0
414,0.016559999999999908,5.000378781950543,-0.08534882440360501,-0.10903436141731253,0
415,0.016599999999999948,4.999392411494816,-0.08732156316825516,-0.11102523966659324,0
416,0.016639999999999988,5.000049991798719,-0.08929430192818714,-0.11301590356511705,0
417,0.016680000000000028,4.99972120164681,-0.08995188151378213,-0.11369119399705102,0
418,0.016720000000000068,4.99972120164681,-0.09093825089119083,-0.11469505998428078,0
419,0.016760000000000108,4.99972120164681,-0.09126704068339796,-0.11504113220747468,0
420,0.016799999999999926,5.000049991798719,-0.09028067130638286,-0.11407183114224383,0
421,0.016839999999999966,5.000378781950543,-0.08929430192818714,-0.11310231601820943,0
422,0.016880000000000006,4.99972120164681,-0.08732156316825516,-0.11114621751834304,0
423,0.016920000000000046,5.000049991798719,-0.08502003460903816,-0.10886111529057005,0
424,0.016960000000000086,5.000707572102282,-0.08337608563423975,-0.1072333787860144,0
425,0.016999999999999904,5.000049991798719,-0.08041697747135755,-0.10429026930153974,0
426,0.017039999999999944,5.000049991798719,-0.07778665909545869,-0.10167573588352441,0
427,0.017079999999999984,5.000378781950543,-0.07482755091257769,-0.0987321990112588,0
428,0.017120000000000024,5.000049991798719,-0.0715396529191989,-0.09545965875642709,0
429,0.017160000000000064,5.000049991798719,-0.06890933451510713,-0.09284448459595719,0
430,0.017200000000000104,5.000707572102282,-0.06595022630053791,-0.08990030720917026,0
431,0.017239999999999922,5.000378781950543,-0.0626623282719858,-0.08662712667358816,0
432,0.017279999999999962,4.99972120164681,-0.06134716905692379,-0.08532647169965217,0
433,0.017320000000000002,5.000378781950543,-0.05707290159361651,-0.08106649531053547,0
434,0.017360000000000042,5.000378781950543,-0.054771372950441696,-0.07877904466146371,0
435,0.017400000000000082,5.001036362253937,-0.05181226468559495,-0.07583380139941884,0
436,0.0174399999999999,5.000049991798719,-0.04819557679208804,-0.07223076560813663,0
437,0.01747999999999994,5.000049991798719,-0.045565258314247556,-0.06961388642460425,0
438,0.01751999999999998,4.99972120164681,-0.0445788888829237,-0.0686407435742682,0
439,0.01756000000000002,5.000049991798719,-0.04129099077011207,-0.06536585942565522,0
440,0.01760000000000006,4.99972120164681,-0.03866067227056637,-0.0627483423719841,0
441,0.0176400000000001,4.99972120164681,-0.03603035376276496,-0.060130612892131355,0
442,0.017679999999999918,5.000378781950543,-0.03372882506167206,-0.057841460903391304,0
443,0.017719999999999958,5.000378781950543,-0.03142729635426868,-0.055552096697006025,0
444,0.017759999999999998,5.000049991798719,-0.029125767640559533,-0.053262520379171265,0
445,0.017800000000000038,5.000049991798719,-0.02781060837275358,-0.05195910151021581,0
446,0.017840000000000078,5.000049991798719,-0.025509079649145103,-0.0496691012984814,0
447,0.017879999999999896,5.000049991798719,-0.023536340738185738,-0.047707679124393595,0
448,0.017919999999999936,4.999392411494816,-0.021892391642189743,-0.046074835104165726,0
449,0.017959999999999976,5.000049991798719,-0.02090602218305261,-0.045099359175516315,0
450,0.018000000000000016,5.000378781950543,-0.018275703619711994,-0.042479722715128725,0
451,0.018040000000000056,5.000049991798719,-0.017289334156344746,-0.04150382404684688,0
452,0.018080000000000096,5.000378781950543,-0.015316595226152155,-0.03954134472545924,0
453,0.018119999999999914,5.000378781950543,-0.014330225759327644,-0.03856502380466509,0
454,0.018159999999999954,5.000049991798719,-0.01301506646843685,-0.037259702122453234,0
455,0.018199999999999994,5.000378781950543,-0.013343856291351444,-0.03759811874403439,0
456,0.018240000000000034,4.99972120164681,-0.0116999071754995,-0.03596358574609007,0
457,0.018280000000000074,5.000049991798719,-0.010055958056451306,-0.03432884219535694,0
458,0.018320000000000114,4.99972120164681,-0.0090695885834889,-0.03335146787419481,0
459,0.018359999999999932,5.000049991798719,-0.007754429284417372,-0.03204509344539644,0
460,0.018399999999999972,5.000378781950543,-0.006110480157705198,-0.030409719044326232,0
461,0.018440000000000012,4.99972120164681,-0.00348016154833046,-0.027787765154764936,0
462,0.018480000000000052,5.000049991798719,-0.0028225818947114484,-0.027138340355838658,0
463,0.018520000000000092,5.001036362253937,-0.0005210531030302584,-0.02484475669634083,0
464,0.01855999999999991,5.000378781950543,-0.0005210531030302584,-0.024852492250527988,0
465,0.01859999999999995,4.99972120164681,-0.0005210531030302584,-0.024860018373132235,0
466,0.01863999999999999,5.000378781950543,0.001122896037706475,-0.023223386071728552,0
467,0.01868000000000003,5.000378781950543,0.001780475694892425,-0.022572914120812842,0
468,0.01872000000000007,5.000049991798719,0.004739584158527918,-0.01962070438248805,0
469,0.01876000000000011,5.000049991798719,0.006712323140007484,-0.017654655299355997,0
470,0.018799999999999928,5.000049991798719,0.006054743479005864,-0.01831871618762953,0
471,0.018839999999999968,4.99972120164681,0.008685062126061585,-0.015694670254547117,0
472,0.018880000000000008,5.000378781950543,0.008685062126061585,-0.01570073461488629,0
473,0.018920000000000048,4.999392411494816,0.009671431620803153,-0.014720221288399777,0
474,0.018960000000000088,5.000378781950543,0.01065780111668721,-0.013739499932120303,0
475,0.018999999999999906,5.000049991798719,0.01065780111668721,-0.013744940208389702,0
476,0.019039999999999946,5.000049991798719,0.01065780111668721,-0.01375017278851885,0
477,0.019079999999999986,5.000049991798719,0.010000221452637598,-0.014412777505629911,0
478,0.019120000000000026,5.000049991798719,0.009013851957515154,-0.015403964697694224,0
479,0.019160000000000066,5.000049991798719,0.006712323140007484,-0.0177101040288458,0
480,0.019200000000000106,5.000378781950543,0.0027668451816259126,-0.021659985492266318,0
481,0.019239999999999924,4.99972120164681,-0.0028225818947114484,-0.027253609241599898,0
482,0.019279999999999964,5.000378781950543,-0.00808321910937683,-0.03251823647564807,0
483,0.019320000000000004,4.99972120164681,-0.014987805404005308,-0.03942660631634007,0
484,0.019360000000000044,5.000049991798719,-0.02090602218305261,-0.04534840035028842,0
485,0.019400000000000084,5.000049991798719,-0.02781060837275358,-0.05225635768774503,0
486,0.019439999999999902,5.000049991798719,-0.0340576148765004,-0.058506529417977265,0
487,0.019479999999999942,5.000049991798719,-0.03964704170886384,-0.06409891574328686,0
488,0.019519999999999982,5.000049991798719,-0.046880417554202566,-0.07133504553761699,0
489,0.019560000000000022,5.000049991798719,-0.05378500352999273,-0.07824218010987954,0
490,0.019600000000000062,5.000378781950543,-0.059374430230432304,-0.08383395024755712,0
491,0.019640000000000102,4.99972120164681,-0.06529264669586828,-0.08975430518612768,0
492,0.01967999999999992,5.000049991798719,-0.07088207331895803,-0.0953456655152235,0
493,0.01971999999999996,5.000049991798719,-0.07647149990437309,-0.10093682123833253,0
494,0.01976,5.000378781950543,-0.08173213665616903,-0.10619898276016569,0
495,0.01980000000000004,5.000378781950543,-0.08600640399234578,-0.11047457070121489,0
496,0.01984000000000008,5.000049991798719,-0.09192462026741856,-0.11639390362032126,0
497,0.019879999999999898,4.99972120164681,-0.0971852569206733,-0.12165545316292813,0
498,0.019919999999999938,5.000049991798719,-0.10047315481186896,-0.12494406039678074,0
499,0.019959999999999978,5.000378781950543,-0.10540500162397977,-0.12987641321466573,0
500,0.020000000000000018,5.000378781950543,-0.10967926883715166,-0.13415098330836497,0
501,0.020040000000000058,5.000378781950543,-0.11395353602801415,-0.13842535046796448,0
502,0.020080000000000098,4.99972120164681,-0.1182278031965366,-0.14269951490870741,0
503,0.020119999999999916,4.99972120164681,-0.12118691122318002,-0.14565831772814347,0
504,0.020159999999999956,4.99972120164681,-0.12480359879672413,-0.1492744978339526,0
505,0.020199999999999996,5.000378781950543,-0.1290778659083996,-0.15354805543807462,0
506,0.020240000000000036,4.99972120164681,-0.13269455344690018,-0.15716383165171852,0
507,0.020280000000000076,5.000049991798719,-0.13598245119521052,-0.1604506164821876,0
508,0.020319999999999894,5.000378781950543,-0.13992792847560936,-0.16439477947787987,0
509,0.020359999999999934,5.000049991798719,-0.14255824665188005,-0.16702358223049493,0
510,0.020399999999999974,4.99972120164681,-0.1471613034398055,-0.17162492268552623,0
511,0.020440000000000014,5.000049991798719,-0.15110678066575872,-0.1755684829008482,0
512,0.020480000000000054,5.000049991798719,-0.1550522578724497,-0.17951184265245967,0
513,0.020520000000000094,5.000378781950543,-0.1603128941180325,-0.18477016123358825,0
514,0.02055999999999991,4.99972120164681,-0.16590232009133205,-0.19035706956991355,0
515,0.02059999999999995,5.000378781950543,-0.17083416650610883,-0.19528619861382882,0
516,0.02063999999999999,5.000049991798719,-0.17773875143590606,-0.20218786667928457,0
517,0.02068000000000003,5.000049991798719,-0.18299938753297212,-0.20744538666070808,0
518,0.02072000000000007,5.000049991798719,-0.19056155186188928,-0.2150042358666287,0
519,0.02076000000000011,5.000049991798719,-0.19845250586784702,-0.22289167598794812,0
520,0.02079999999999993,5.000378781950543,-0.20568588030461116,-0.23012133802590598,0
521,0.02083999999999997,5.000378781950543,-0.21291925467551198,-0.23735080173306491,0
522,0.02088000000000001,5.000378781950543,-0.2201526289804009,-0.24458006736026408,0
523,0.02092000000000005,4.99972120164681,-0.22442689558401946,-0.24885002752498506,0
524,0.02096000000000009,5.000049991798719,-0.22968753137209907,-0.25410615936744785,0
525,0.020999999999999908,5.000378781950543,-0.23264663898747384,-0.25706056578672054,0
526,0.021039999999999948,5.000049991798719,-0.23363300819012922,-0.2580420368007642,0
527,0.021079999999999988,4.99972120164681,-0.23396179792407312,-0.2583657316133012,0
528,0.021120000000000028,5.000378781950543,-0.23001632110768933,-0.25441496340416514,0
529,0.021160000000000068,4.99972120164681,-0.22475568532180157,-0.24914884001736154,0
530,0.021200000000000108,5.000378781950543,-0.21620715209501734,-0.24059462324640818,0
531,0.021239999999999926,5.000707572102282,-0.2063434597955987,-0.23072505172620256,0
532,0.021279999999999966,4.99972120164681,-0.1945070288746319,-0.21888254617618735,0
533,0.021320000000000006,5.000378781950543,-0.18036906948875936,-0.20473831702307865,0
534,0.021360000000000046,4.99972120164681,-0.16392958151695192,-0.18829236441763386,0
535,0.021400000000000086,5.000049991798719,-0.14584614436021137,-0.170202268034351,0
536,0.021439999999999904,5.000049991798719,-0.12315964990164728,-0.14750892003154142,0
537,0.021479999999999944,5.000378781950543,-0.0998155752346823,-0.12415779777953095,0
538,0.021519999999999984,5.000049991798719,-0.07416997131494572,-0.09850495251254943,0
539,0.021560000000000024,4.99972120164681,-0.04720920736386795,-0.07153675373232142,0
540,0.021600000000000064,5.000378781950543,-0.017618123977595282,-0.04193804231697709,0
541,0.021640000000000104,5.000378781950543,0.01295932994485767,-0.011352767449200704,0
542,0.02167999999999992,5.000378781950543,0.04320799511934159,0.018903911301506954,0
543,0.02171999999999996,5.000707572102282,0.07444303092521187,0.050147153027472025,0
544,0.02176,4.99972120164681,0.10666443745724652,0.08237695753476937,0
545,0.02180000000000004,5.000049991798719,0.13855705528841938,0.11427816510599947,0
546,0.02184000000000008,5.000049991798719,0.1714360439396491,0.1471659349700414,0
547,0.0218799999999999,4.99972120164681,0.20365745398298266,0.17939631740523998,0
548,0.02191999999999994,5.000049991798719,0.23423491558888598,0.20998294228670028,0
549,0.02195999999999998,5.000378781950543,0.2677714875497642,0.24352886810981245,0
550,0.02200000000000002,4.99972120164681,0.2950610518993585,0.27082797660965297,0
551,0.02204000000000006,4.999392411494816,0.3239945667724302,0.2997712256206727,0
552,0.0220800000000001,4.998734831190575,0.35358566243892364,0.3293722451108645,0
553,0.022119999999999918,4.999392411494816,0.380546439283206,0.3563431351610072,0
554,0.022159999999999958,4.998734831190575,0.407507216875271,0.3833142150358728,0
555,0.022199999999999998,4.99972120164681,0.43644073511423975,0.41225822432773235,0
556,0.022240000000000038,4.998077250885994,0.4676757841589331,0.44350395288693156,0
557,0.022280000000000078,4.998734831190575,0.49463656411502505,0.4704756005090489,0
558,0.022319999999999895,5.002022732708393,0.5262004049718968,0.5020504968717541,0
559,0.022359999999999935,5.000378781950543,0.5580930368208009,0.533954371752976,0
560,0.022399999999999975,4.999063621342738,0.5860401892433617,0.5619129544194078,0
561,0.022440000000000015,5.001693942556992,0.6218783034324199,0.5977626857473555,0
562,0.022480000000000055,4.999063621342738,0.6544285182772552,0.6303247043079646,0
563,0.022520000000000095,5.000707572102282,0.6905954248046261,0.6665036008082649,0
564,0.022559999999999913,5.001365152405508,0.7244608019926179,0.700381153905023,0
565,0.022599999999999953,5.000378781950543,0.759641340545081,0.7355740539791854,0
566,0.022639999999999993,4.99972120164681,0.7954794603771443,0.7714247206213952,0
567,0.022680000000000033,5.000707572102282,0.8316463714268618,0.8076043634436446,0
568,0.022720000000000073,5.000707572102282,0.8684708638220265,0.8444417722460956,0
569,0.022760000000000113,5.000049991798719,0.9049665672267917,0.8809505763637047,0
570,0.02279999999999993,5.000049991798719,0.941791061863233,0.9177883556877924,0
571,0.02283999999999997,4.99972120164681,0.9796019280323394,0.9556126901870398,0
572,0.02288000000000001,4.99972120164681,1.014782474096088,0.9908068878895661,0
573,0.02292000000000005,5.000378781950543,1.0483190703080412,1.0243573187135304,0
574,0.02296000000000009,5.000378781950543,1.0795541361832774,1.055606401837066,0
575,0.02299999999999991,5.000049991798719,1.1058573501232805,1.0819238153231718,0
576,0.02303999999999995,4.99972120164681,1.1295302431096574,1.1056110898134397,0
577,0.02307999999999999,5.000378781950543,1.14399701124883,1.1200924210727505,0
578,0.02312000000000003,5.000378781950543,1.1545182972641441,1.1306284514813871,0
579,0.02316000000000007,4.99972120164681,1.1555046678322018,1.1316297473713717,1
580,0.02320000000000011,5.000378781950543,1.1515591855642053,1.127699371007815,0
581,0.023239999999999927,5.000049991798719,1.1387363682714122,1.1148918398543777,0
582,0.023279999999999967,4.99972120164681,1.1222968590976674,1.098467796705806,0
583,0.023320000000000007,5.000049991798719,1.0992815465897365,1.0754681297582702,0
584,0.023360000000000047,4.99972120164681,1.0729783327795541,1.0491807406916167,0
585,0.023400000000000087,5.000378781950543,1.0437160080314838,1.0199344195166344,0
586,0.023439999999999905,5.000049991798719,1.0131385233238153,0.9893731168565536,0
587,0.023479999999999945,4.99972120164681,0.980259508323641,0.9565104620219282,0
588,0.023519999999999985,4.999392411494816,0.9470517040441088,0.9233191956678922,0
589,0.023560000000000025,5.000049991798719,0.9135151105257936,0.8897993174755381,0
590,0.023600000000000065,4.99972120164681,0.8829376290032757,0.8592387283184967,0
591,0.023640000000000105,5.000049991798719,0.8510449878137435,0.8273631561715443,0
592,0.023679999999999923,5.000049991798719,0.8234266188170674,0.7997620325306796,0
593,0.023719999999999963,5.000378781950543,0.7974522009508188,0.7738050359681481,0
594,0.023760000000000003,5.000378781950543,0.774436894468236,0.7508073263704116,0
595,0.023800000000000043,5.000049991798719,0.7540519091130642,0.7304401131129938,0
596,0.023840000000000083,5.000378781950543,0.7359684546692423,0.7123746056101723,0
597,0.0238799999999999,4.99972120164681,0.72084411117581,0.6972683835298886,0
598,0.02391999999999994,5.000049991798719,0.7083500884443236,0.6847926563111698,0
599,0.02395999999999998,4.999063621342738,0.6951984857208838,0.6716595228261595,0
600,0.02400000000000002,5.000049991798719,0.6846772036548265,0.6611568833488135,0
601,0.02404000000000006,5.000049991798719,0.6748135018093161,0.6513119970654963,0
602,0.0240800000000001,4.99972120164681,0.6646210099956396,0.6411384934092802,0
603,0.02411999999999992,4.99972120164681,0.6587027889862398,0.6352394327729833,0
604,0.02415999999999996,4.99972120164681,0.6494966674801125,0.6260526434745709,0
605,0.0242,5.000049991798719,0.6402905460522293,0.6168660257065833,0
606,0.02424000000000004,5.000378781950543,0.6297692645165647,0.6063644188991679,0
607,0.02428000000000008,5.000378781950543,0.6195767731271581,0.5961917729211454,0
608,0.024319999999999897,4.99972120164681,0.6083979117149908,0.5850329272168917,0
609,0.024359999999999937,5.000378781950543,0.596561470347713,0.5732166714660689,0
610,0.024399999999999977,5.000378781950543,0.5840674490479663,0.5607430053019534,0
611,0.024440000000000017,5.000049991798719,0.5702582677837643,0.5469543483018223,0
612,0.024480000000000057,5.000049991798719,0.5548051365848756,0.531521910103341,0
613,0.024520000000000097,5.001036362253937,0.5396807956335524,0.5164184304952975,0
614,0.024559999999999915,4.999392411494816,0.5248852449167825,0.5016439090698591,0
615,0.024599999999999955,4.99972120164681,0.5084457443700094,0.48522560536629944,0
616,0.024639999999999995,5.000378781950543,0.49299261409714806,0.46979383909101674,0
617,0.024680000000000035,5.000049991798719,0.4768819040630457,0.45370465981000113,0
618,0.024720000000000075,5.000049991798719,0.46109998427901333,0.43794443713437,0
619,0.024759999999999893,5.000049991798719,0.4472908046716622,0.4241571205892092,0
620,0.024799999999999933,4.999392411494816,0.4334816252554924,0.41036996978616663,0
621,0.024839999999999973,5.000049991798719,0.42033002599020897,0.39724056428077337,0
622,0.024880000000000013,4.99972120164681,0.40816479682581774,0.3850976936175454,0
623,0.024920000000000053,4.99972120164681,0.3992874675306201,0.37624288715798443,0
624,0.024960000000000093,5.000378781950543,0.38942376840815146,0.366401874797521,0
625,0.02499999999999991,4.99972120164681,0.38317675901549086,0.3601777156838309,0
626,0.02503999999999995,5.000049991798719,0.3785736994886627,0.3555976695422417,0
627,0.02507999999999999,5.000378781950543,0.3762721697334264,0.353319315866528,0
628,0.02512000000000003,5.000378781950543,0.3775873295928934,0.35465781408653346,0
629,0.02516000000000007,5.000049991798719,0.380546439283206,0.35764042400385576,0
630,0.02520000000000011,5.000049991798719,0.3858070787548861,0.3629247251532007,0
631,0.02523999999999993,5.000378781950543,0.39205408816440523,0.36919555727395764,0
632,0.02527999999999997,5.000049991798719,0.3996162575030826,0.37678170993910326,0
633,0.02532000000000001,5.000378781950543,0.41013753668009856,0.3873271326382204,0
634,0.02536000000000005,5.000378781950543,0.4200012360108184,0.397215135265827,0
635,0.02540000000000009,4.99972120164681,0.4328240452880801,0.41006240719266984,0
636,0.025439999999999907,4.99972120164681,0.44597564471901197,0.42323862820254715,0
637,0.025479999999999947,5.000049991798719,0.4574832943634291,0.43477105793071047,0
638,0.025519999999999987,5.000707572102282,0.47129247411122743,0.4486051758412638,0
639,0.025560000000000027,5.000049991798719,0.4834577040459921,0.46079550159077726,0
640,0.025600000000000067,5.000049991798719,0.49595172413124133,0.4733147747145374,0
641,0.025640000000000107,5.000049991798719,0.508774534378359,0.48616299479448477,0
642,0.025679999999999925,5.000378781950543,0.5206109747492774,0.49802500136190275,0
643,0.025719999999999965,5.000049991798719,0.5340913653378426,0.5115311140787874,0
644,0.025760000000000005,5.000049991798719,0.5485581261652309,0.5260237525332707,0
645,0.025800000000000045,5.000049991798719,0.5613809370670942,0.5388725961267702,0
646,0.025840000000000085,5.000049991798719,0.5755189082439633,0.553036754624398,0
647,0.025879999999999903,5.000049991798719,0.5889992995433722,0.5665434874370909,0
648,0.025919999999999943,5.000049991798719,0.6024796910148611,0.5800503741766181,0
649,0.025959999999999983,5.000378781950543,0.6176040328694465,0.5952013646150565,0
650,0.026000000000000023,5.000049991798719,0.6294404744702333,0.607064607675409,0
651,0.026040000000000063,4.999392411494816,0.6416057062514106,0.6192567933506063,0
652,0.026080000000000103,5.000049991798719,0.6554148884393743,0.6330930814246357,0
653,0.02611999999999992,5.000378781950543,0.6659361702243166,0.6436416206441363,0
654,0.02615999999999996,5.000049991798719,0.6774438222927798,0.655176681250958,0
655,0.0262,5.001036362253937,0.6873075241619211,0.6650679423164323,0
656,0.02624000000000004,5.000378781950543,0.6958560658533445,0.6736441934152098,0
657,0.02628000000000008,4.99972120164681,0.7057197678871521,0.6835357546193179,0
658,0.0263199999999999,4.99972120164681,0.7145970997925511,0.6924410950087747,0
659,0.02635999999999994,5.000049991798719,0.723474431768692,0.7013465843324327,0
660,0.02639999999999998,5.000378781950543,0.733009343969696,0.710909802293012,0
661,0.02644000000000002,4.99972120164681,0.7422154661716212,0.720144378214072,0
662,0.02648000000000006,4.99972120164681,0.7543806991965382,0.7323382124640914,0
663,0.0265200000000001,5.001365152405508,0.7672035125262616,0.7451897740702067,0
664,0.026559999999999917,5.000378781950543,0.7796975359093177,0.7577126923251835,0
665,0.026599999999999957,4.99972120164681,0.796137040567995,0.7741812379944728,0
666,0.026639999999999997,5.000049991798719,0.8135629157615815,0.7916362998794543,0
667,0.026680000000000037,5.001365152405508,0.8352630625934149,0.8133657786244913,0
668,0.026720000000000077,4.99972120164681,0.8592647406160285,0.8373969333220843,0
669,0.026759999999999895,5.000049991798719,0.8845815796030886,0.8627433932848123,0
670,0.026799999999999935,5.000049991798719,0.913843900653876,0.8920354791498202,0
671,0.026839999999999975,4.99972120164681,0.9431062224063566,0.9213277090918945,0
672,0.026880000000000015,5.000049991798719,0.9736837054260823,0.95193524321237,0
673,0.026920000000000055,5.000049991798719,1.0026172384312928,0.9808989697642376,0
674,0.026960000000000095,4.99972120164681,1.030564401616888,1.0088764684761249,0
675,0.026999999999999913,4.99972120164681,1.0525933424365337,1.0309358863344067,0
676,0.027039999999999953,5.001036362253937,1.0713343819337338,1.0497075439142827,0
677,0.027079999999999993,5.000049991798719,1.0861299396196233,1.0645338602575762,0
678,0.027120000000000033,5.000707572102282,1.0950072743102404,1.0734420937100135,0
679,0.027160000000000073,4.99972120164681,1.0989527564139059,1.0774186142086037,0
680,0.027200000000000113,5.000378781950543,1.098295176062487,1.0767922114129085,0
681,0.02723999999999993,5.000049991798719,1.0900754216970434,1.0686037732906937,0
682,0.02727999999999997,5.000049991798719,1.07758139515873,1.0561412012088396,0
683,0.02732000000000001,5.000049991798719,1.0581827752410309,1.0367741734855782,0
684,0.02736000000000005,5.000378781950543,1.0338523032080265,1.0124754309087662,0
685,0.02740000000000009,4.99972120164681,1.0039323990381175,0.982587392979615,0
686,0.02743999999999991,5.000378781950543,0.9694094335611195,0.9480964300497905,0
687,0.02747999999999995,5.000049991798719,0.9319273578344426,0.9106464926975977,0
688,0.02751999999999999,5.000049991798719,0.8914861721468058,0.8702375807317001,0
689,0.02756000000000003,5.000049991798719,0.8500586174812975,0.8288424346541855,0
690,0.02760000000000007,5.000378781950543,0.8063295335739755,0.7851458937191728,0
691,0.02764000000000011,4.99972120164681,0.7622716612284882,0.7411206982474393,0
692,0.027679999999999927,5.000378781950543,0.7185425806621187,0.6974244279724715,0
693,0.027719999999999967,4.999392411494816,0.6728407614508646,0.6517555519855488,0
694,0.027760000000000007,5.000049991798719,0.6258237839672344,0.6047716501735458,0
695,0.027800000000000047,5.000378781950543,0.5797931786372817,0.5587742524759723,0
696,0.027840000000000087,4.99972120164681,0.5327762052726586,0.5117906182170326,0
697,0.027879999999999905,5.000378781950543,0.48641681405226794,0.46546469708728466,0
698,0.027919999999999945,4.999392411494816,0.4426877448449788,0.4217692284663606,0
699,0.027959999999999985,5.000049991798719,0.3992874675306201,0.3784026817439656,0
700,0.028000000000000025,5.000049991798719,0.35884630176409116,0.33799537608399305,0
701,0.028040000000000065,5.000049991798719,0.32070666731055003,0.29988973075971875,0
702,0.028080000000000105,4.999392411494816,0.285526143783271,0.26474332489166397,0
703,0.028119999999999923,5.000378781950543,0.25461989055770806,0.233871317361665,0
704,0.028159999999999963,5.000049991798719,0.22667274756988962,0.20595854761127252,0
705,0.028200000000000003,5.000049991798719,0.20299987417473864,0.1823201745000782,0
706,0.028240000000000043,4.99972120164681,0.18327248014878164,0.16262740730842817,0
707,0.028280000000000083,4.99972120164681,0.1658466157838382,0.14523629583111886,0
708,0.0283199999999999,5.000049991798719,0.15302381014612548,0.1324483686365061,0
709,0.02835999999999994,4.99972120164681,0.14250253386270198,0.12196209585295559,0
710,0.02839999999999998,4.99972120164681,0.13494036661069325,0.11443505665807441,0
711,0.02844000000000002,5.000378781950543,0.1286933589292962,0.10822330109072131,0
712,0.02848000000000006,5.000049991798719,0.1250766702917519,0.10464198812298497,0
713,0.0285200000000001,5.000049991798719,0.12277514116645709,0.10237595772130204,0
714,0.02855999999999992,5.000049991798719,0.12277514116645709,0.10241157899595554,0
715,0.02859999999999996,5.000049991798719,0.12244635129190345,0.10211853244353863,0
716,0.02864,5.000049991798719,0.1234327209159308,0.10314076693283769,0
717,0.02868000000000004,4.99972120164681,0.12441909054105722,0.10416312246123738,0
718,0.02872000000000008,5.000049991798719,0.1257342500429348,0.10551438839847882,0
719,0.028759999999999897,4.99972120164681,0.12474788041634353,0.10456424523265906,0
720,0.028799999999999937,5.000049991798719,0.12441909054105722,0.1042718013361027,0
721,0.028839999999999977,4.99972120164681,0.12310393104113287,0.10299310682465657,0
722,0.028880000000000017,5.000378781950543,0.12277514116645709,0.1027009004392434,0
723,0.028920000000000057,5.000049991798719,0.12080240192096793,0.10076486267409168,0
724,0.028960000000000097,4.999063621342738,0.11882966267987906,0.09882894239396467,0
725,0.028999999999999915,4.99972120164681,0.11850087280679227,0.09853708845128029,0
726,0.029039999999999955,5.000378781950543,0.11784329306098568,0.09791656109340541,0
727,0.029079999999999995,5.000049991798719,0.1181720829338278,0.09828251929907694,0
728,0.029120000000000035,5.000049991798719,0.11915845255308817,0.09930617268271902,0
729,0.029160000000000075,4.99972120164681,0.12047361204714746,0.10065873085865995,0
730,0.029200000000000115,5.000378781950543,0.12409030066589298,0.104312932562033,0
731,0.029239999999999933,4.99972120164681,0.12836456905254606,0.10862482792061057,0
732,0.029279999999999973,5.000378781950543,0.13165246782553117,0.11195046703667966,0
733,0.029320000000000013,4.99972120164681,0.13724189576754459,0.1175777481761156,0
734,0.029360000000000053,5.000378781950543,0.14283132374468102,0.1232051416875159,0
735,0.029400000000000093,4.99972120164681,0.14776317198891464,0.12817506728468725,0
736,0.02943999999999991,5.000378781950543,0.1520374404892899,0.13248752443784306,0
737,0.02947999999999995,4.99972120164681,0.15269502026039275,0.13318340364208148,0
738,0.02951999999999999,4.999392411494816,0.15302381014612548,0.13355060322116608,0
739,0.02956000000000003,5.000049991798719,0.15039349106364885,0.13095880357147355,0
740,0.02960000000000007,4.999392411494816,0.1444752731563955,0.12507921431501307,0
741,0.02964000000000011,5.000049991798719,0.13658431600783633,0.1172269945131994,0
742,0.02967999999999993,5.000049991798719,0.1250766702917519,0.10575819431713068,0
743,0.02971999999999997,5.000049991798719,0.11093870575958677,0.09165918295494879,0
744,0.02976000000000001,4.999392411494816,0.09515679213113215,0.07591632962252803,0
745,0.02980000000000005,5.000049991798719,0.07773092949650393,0.058529633885459176,0
746,0.02984000000000009,4.99972120164681,0.05931869765744993,0.04015667502036269,0
747,0.029879999999999907,4.99972120164681,0.037289777936047624,0.018167133823592585,0
748,0.029919999999999947,5.000049991798719,0.016247228281592724,-0.002835932281868958,0
749,0.029959999999999987,4.99972120164681,-0.003808951374948702,-0.02285252389195247,0
750,0.030000000000000027,5.000378781950543,-0.024851500012672237,-0.04385538051322857,0
751,0.030040000000000067,4.999392411494816,-0.04293493982813261,-0.06189902487029886,0
752,0.030080000000000107,5.000049991798719,-0.059374430230432304,-0.07829861690087958,0
753,0.030119999999999925,4.99972120164681,-0.07581392030804664,-0.09469810622262087,0
754,0.030159999999999965,4.99972120164681,-0.09093825089119083,-0.10978233419546646,0
755,0.030200000000000005,4.99972120164681,-0.10408984247698179,-0.12289372184680836,0
756,0.030240000000000045,4.998406041038327,-0.11658385428821218,-0.13534742893025464,0
757,0.030280000000000085,5.000378781950543,-0.12710512724426004,-0.14582829689653287,0
758,0.030319999999999903,5.000707572102282,-0.1376264000643745,-0.15630906499677,0
759,0.030359999999999943,4.999063621342738,-0.145188564819613,-0.1638306258344211,0
760,0.030399999999999983,5.001036362253937,-0.15209314996923823,-0.17069450840166134,0
761,0.030440000000000023,4.997419670581074,-0.15965531458921167,-0.17821587230787306,0
762,0.030480000000000063,4.998734831190575,-0.16491595080474653,-0.18343561021219135,0
763,0.030520000000000103,5.000049991798719,-0.17083416650610883,-0.18931283053929937,0
764,0.03055999999999992,4.999063621342738,-0.17642359240624145,-0.19486116453704405,0
765,0.03059999999999996,5.002022732708393,-0.17839633094992902,-0.1967927151855967,0
766,0.03064,4.998077250885994,-0.18562970556853736,-0.20398480645218608,0
767,0.03068000000000004,5.000707572102282,-0.19056155186188928,-0.20887527447296828,0
768,0.03072000000000008,4.999063621342738,-0.19417823912431548,-0.21245048907907038,0
769,0.0307599999999999,5.000049991798719,-0.19911008536481606,-0.21734076881674647,0
770,0.03079999999999994,5.000049991798719,-0.2063434597955987,-0.22453248343591026,0
771,0.03083999999999998,5.000378781950543,-0.21127530596064387,-0.2294225770186944,0
772,0.03088000000000002,4.99972120164681,-0.21653594183621722,-0.23464136807995706,0
773,0.03092000000000006,4.99972120164681,-0.22179657767683592,-0.23986006741324128,0
774,0.0309600000000001,5.000707572102282,-0.22508447505944684,-0.24310593713494788,0
775,0.030999999999999917,5.000049991798719,-0.23067390057845844,-0.24865324437935932,0
776,0.031039999999999957,4.99972120164681,-0.2316602697835834,-0.24959740523647755,0
777,0.031079999999999997,4.99972120164681,-0.23396179792407312,-0.2518566354962527,0
778,0.031120000000000037,5.000049991798719,-0.23790727472068857,-0.2557597254205469,0
779,0.031160000000000077,4.99972120164681,-0.23922243364849655,-0.2570324090259254,0
780,0.031199999999999894,5.000707572102282,-0.2385648541848675,-0.25633226633164774,0
781,0.031239999999999934,4.99972120164681,-0.23757848498839296,-0.25530324653857894,0
782,0.031279999999999974,5.000049991798719,-0.235276956858476,-0.2529589809887731,0
783,0.031320000000000014,5.000049991798719,-0.23363300819012922,-0.25127220862026534,0
784,0.031360000000000054,5.000049991798719,-0.22968753137209907,-0.24728382236518875,0
785,0.031400000000000095,4.99972120164681,-0.22870116216450587,-0.2462544585274098,0
786,0.03143999999999991,4.99972120164681,-0.2260708442715611,-0.24358106135523783,0
787,0.03147999999999995,5.000378781950543,-0.2211389981986721,-0.23860605189852302,0
788,0.03151999999999999,5.000049991798719,-0.2185086802805486,-0.23593248703675562,0
789,0.03156000000000003,5.000378781950543,-0.21522078287059865,-0.23260125966845446,0
790,0.03160000000000007,5.000378781950543,-0.21193288544700017,-0.22926994981723237,0
791,0.03164000000000011,5.000049991798719,-0.21127530596064387,-0.2285688759797313,0
792,0.03167999999999993,5.000378781950543,-0.20963135724236776,-0.22688135153284938,0
793,0.03171999999999997,5.000049991798719,-0.21094651621726124,-0.22815285394803786,0
794,0.03176000000000001,5.000049991798719,-0.21193288544700017,-0.2290954863336282,0
795,0.03180000000000005,4.99972120164681,-0.21390562390279633,-0.23102440820777537,0
796,0.03184000000000009,4.99972120164681,-0.2171935213182073,-0.23426840985126274,0
797,0.03187999999999991,5.000049991798719,-0.22179657767683592,-0.2388274917951938,0
798,0.03191999999999995,5.000707572102282,-0.2273860032191295,-0.2443728648277852,0
799,0.03195999999999999,5.000378781950543,-0.23231784925298088,-0.24926058080496083,0
800,0.03200000000000003,5.000378781950543,-0.23988001311157553,-0.2567785376081919,0
801,0.03204000000000007,5.000049991798719,-0.24777096662558196,-0.2646252076166794,0
802,0.03208000000000011,5.000049991798719,-0.25631949950946953,-0.27312938109366625,0
803,0.032119999999999926,5.000049991798719,-0.2642104528578184,-0.2809758996827413,0
804,0.032159999999999966,5.000049991798719,-0.2724301958441417,-0.28915113310665674,0
805,0.032200000000000006,5.000378781950543,-0.28295146673991745,-0.29962782018635337,0
806,0.032240000000000046,5.000049991798719,-0.29281515807511177,-0.3094468540014764,0
807,0.032280000000000086,4.99972120164681,-0.3016924801692385,-0.3182794454214285,0
808,0.032319999999999904,4.99972120164681,-0.31056980216119284,-0.3271119641351963,0
809,0.032359999999999944,5.000049991798719,-0.3184607549569337,-0.334958041599026,0
810,0.032399999999999984,5.000049991798719,-0.326351707671536,-0.34280404747846915,0
811,0.032440000000000024,5.000049991798719,-0.33325629123010236,-0.34966361324928785,0
812,0.032480000000000064,5.000378781950543,-0.3408184541035985,-0.35718068793328317,0
813,0.032520000000000104,4.99972120164681,-0.34805182721674705,-0.3643689030061822,0
814,0.03255999999999992,5.000378781950543,-0.354627620896286,-0.37089946934588947,0
815,0.03259999999999996,5.000049991798719,-0.3615322041984969,-0.37775875656000935,0
816,0.03264,5.000378781950543,-0.3684367874377801,-0.38461797551441446,0
817,0.03268000000000004,5.000378781950543,-0.37501258094038,-0.39114833708696417,0
818,0.03272000000000008,4.99972120164681,-0.38224595372704717,-0.3983362108501609,0
819,0.0327599999999999,4.99972120164681,-0.3901369057787003,-0.4061815973368046,0
820,0.03279999999999994,4.99972120164681,-0.3970414887559075,-0.4130405487594646,0
821,0.03283999999999998,4.99972120164681,-0.4046036509913078,-0.42055701400289625,0
822,0.03288000000000002,5.000049991798719,-0.40986428554476706,-0.42577188667918997,0
823,0.03292000000000006,5.000049991798719,-0.4147961304049833,-0.43065790532936954,0
824,0.0329600000000001,5.000049991798719,-0.4174264476504326,-0.4332423325843323,0
825,0.03299999999999992,4.99972120164681,-0.4190703959241243,-0.4348403276395979,0
826,0.03303999999999996,5.000049991798719,-0.4197279752325852,-0.4354518910542836,0
827,0.03308,5.000049991798719,-0.4174264476504326,-0.43310428545567115,0
828,0.03312000000000004,5.000049991798719,-0.4147961304049833,-0.43042782862381035,0
829,0.03316000000000008,5.000378781950543,-0.4111794441773443,-0.4267649417926018,0
830,0.033199999999999896,5.000378781950543,-0.4069051786130019,-0.4224444151603801,0
831,0.033239999999999936,4.999392411494816,-0.40164454403872485,-0.4171374596068098,0
832,0.033279999999999976,5.000378781950543,-0.3970414887559075,-0.41248802398622164,0
833,0.033320000000000016,5.000707572102282,-0.3911232747793326,-0.4065233708663688,0
834,0.033360000000000056,5.000049991798719,-0.3858626400943319,-0.40121623878557977,0
835,0.033400000000000096,5.000707572102282,-0.37961563635810947,-0.39492267995407637,0
836,0.033439999999999914,5.000378781950543,-0.37435500159269686,-0.38961543294692047,0
837,0.033479999999999954,5.000049991798719,-0.3707383151702016,-0.3859520776892551,0
838,0.033519999999999994,5.000378781950543,-0.3664640493758422,-0.3816310870193332,0
839,0.033560000000000034,5.000049991798719,-0.3628473629155968,-0.3779676201961591,0
840,0.033600000000000074,5.000049991798719,-0.3598882557989115,-0.37496167778219086,0
841,0.033640000000000114,5.000049991798719,-0.35528520026110905,-0.3703117325657429,0
842,0.03367999999999993,5.000049991798719,-0.3526548827984001,-0.3676344715959911,0
843,0.03371999999999997,4.999392411494816,-0.3500245653265829,-0.36495715734166334,0
844,0.03376000000000001,4.99972120164681,-0.3483806169020751,-0.3632661594120653,0
845,0.03380000000000005,5.000049991798719,-0.3457502994154722,-0.36058874025063115,0
846,0.03384000000000009,5.000378781950543,-0.34344877160723836,-0.3582400591506059,0
847,0.03387999999999991,5.000378781950543,-0.34016087472627016,-0.35490495791360277,0
848,0.03391999999999995,5.000049991798719,-0.33818813659088265,-0.3528849649105818,0
849,0.03395999999999999,4.99972120164681,-0.33457144999609184,-0.3492209734891259,0
850,0.03400000000000003,5.000378781950543,-0.33161234276943186,-0.346214512029252,0
851,0.03404000000000007,5.000378781950543,-0.32963960461196057,-0.34419437078440934,0
852,0.03408000000000011,5.000378781950543,-0.326680497366214,-0.34118781214942645,0
853,0.03411999999999993,5.000049991798719,-0.32437896950050266,-0.3388387851448018,0
854,0.03415999999999997,5.000378781950543,-0.3220774416278766,-0.3364897109356613,0
855,0.03420000000000001,5.000049991798719,-0.32010470344584,-0.3344693797714669,0
856,0.03424000000000005,5.000378781950543,-0.3181319652587298,-0.33244900250838844,0
857,0.03428000000000009,5.000707572102282,-0.3164880167655977,-0.33075736939717915,0
858,0.034319999999999906,4.99972120164681,-0.31615922706654886,-0.3303808500895083,0
859,0.034359999999999946,5.000049991798719,-0.31451527856919353,-0.3286891275444053,0
860,0.034399999999999986,5.000049991798719,-0.31287133006832074,-0.32699736110792693,0
861,0.034440000000000026,4.99972120164681,-0.31287133006832074,-0.3269494998355735,0
862,0.034480000000000066,4.99972120164681,-0.31188496096610946,-0.3259152266752068,0
863,0.034520000000000106,5.001036362253937,-0.31089859186263286,-0.32488091127854757,0
864,0.034559999999999924,5.000049991798719,-0.30991222275789126,-0.3238465541961913,0
865,0.034599999999999964,5.000378781950543,-0.3089258536518853,-0.32281215597854773,0
866,0.034640000000000004,5.000049991798719,-0.3079394845446151,-0.3217777171758329,0
867,0.034680000000000044,5.000378781950543,-0.30662432573295567,-0.32041444863493707,0
868,0.034720000000000084,4.99972120164681,-0.304651587511256,-0.3183935612000175,0
869,0.0347599999999999,5.000049991798719,-0.3023500595795572,-0.3160438451207093,0
870,0.03479999999999994,5.000707572102282,-0.29807579340246787,-0.31172135241099413,0
871,0.03483999999999998,4.99972120164681,-0.2947878963270667,-0.30838519096709593,0
872,0.03488000000000002,5.000378781950543,-0.29117120952797193,-0.30472020251254356,0
873,0.03492000000000006,4.99972120164681,-0.2849242050170022,-0.29842485960782406,0
874,0.0349600000000001,4.99972120164681,-0.2813075181718476,-0.2947597981790475,0
875,0.03499999999999992,5.000049991798719,-0.2763756724467517,-0.28977954222862157,0
876,0.03503999999999996,5.000378781950543,-0.2697998780979539,-0.2831553025606872,0
877,0.03508,4.99972120164681,-0.26388166313656264,-0.2771886077339849,0
878,0.03512000000000004,5.000707572102282,-0.256977078958209,-0.2702355096915014,0
879,0.03516000000000008,5.000378781950543,-0.2507300741728716,-0.2639399575902879,0
880,0.0351999999999999,4.99972120164681,-0.24481185906712527,-0.25797316226370204,0
881,0.03523999999999994,5.000378781950543,-0.23823606445284673,-0.2513487550701067,0
882,0.03527999999999998,4.99972120164681,-0.23297542872182958,-0.24603947494747733,0
883,0.03532000000000002,4.99972120164681,-0.22804358269209174,-0.2410589532597029,0
884,0.03536000000000006,5.000378781950543,-0.22212536741571265,-0.2350920316044166,0
885,0.0354000000000001,4.99972120164681,-0.2171935213182073,-0.23011144895236377,0
886,0.035439999999999916,5.000049991798719,-0.21390562390279633,-0.22677478535166473,0
887,0.035479999999999956,5.000049991798719,-0.20996014698629556,-0.22278051316369796,0
888,0.035519999999999996,4.99972120164681,-0.20765861877594044,-0.22043016113991745,0
889,0.035560000000000036,5.000049991798719,-0.2053570905589132,-0.21807978111137322,0
890,0.035600000000000076,5.000049991798719,-0.20338435208186884,-0.2160581633682307,0
891,0.035639999999999894,5.000378781950543,-0.20239798284151073,-0.21502288795033947,0
892,0.035679999999999934,5.000378781950543,-0.20141161359992904,-0.21398758616256508,0
893,0.035719999999999974,5.000378781950543,-0.20141161359992904,-0.21393862779010983,0
894,0.035760000000000014,5.000049991798719,-0.20141161359992904,-0.21388964413340428,0
895,0.035800000000000054,5.000049991798719,-0.20042524435712428,-0.21285426649126463,0
896,0.035840000000000094,5.000049991798719,-0.20141161359992904,-0.21379160313332818,0
897,0.03587999999999991,5.000049991798719,-0.20108282385246334,-0.21341375712453325,0
898,0.03591999999999995,4.99972120164681,-0.20174040334725885,-0.21402225723781904,0
899,0.03595999999999999,4.99972120164681,-0.2020691930944527,-0.21430194502331243,0
900,0.03600000000000003,5.000707572102282,-0.20174040334725885,-0.21392403127379234,0
901,0.03604000000000007,5.001036362253937,-0.20174040334725885,-0.2138748857699735,0
902,0.03608000000000011,5.000049991798719,-0.2027267725884327,-0.21481208854453038,0
903,0.03611999999999993,5.000378781950543,-0.2020691930944527,-0.214105322159384,0
904,0.03615999999999997,5.000049991798719,-0.2020691930944527,-0.21405611538146385,0
905,0.03620000000000001,4.99972120164681,-0.20305556233521876,-0.21499325849489218,0
906,0.03624000000000005,5.000049991798719,-0.2027267725884327,-0.2146152238082208,0
907,0.03628000000000009,5.000049991798719,-0.2027267725884327,-0.21456596059218475,0
908,0.03631999999999991,5.000378781950543,-0.20174040334725885,-0.21353031039474132,0
909,0.03635999999999995,5.000378781950543,-0.20239798284151073,-0.21413859172792102,0
910,0.03639999999999999,5.000378781950543,-0.20239798284151073,-0.21408927689698387,0
911,0.03644000000000003,5.000378781950543,-0.20174040334725885,-0.21338236643636788,0
912,0.03648000000000007,4.99972120164681,-0.20174040334725885,-0.21333301986850864,0
913,0.03652000000000011,5.000378781950543,-0.20075403410486176,-0.21229728899017586,0
914,0.036559999999999926,4.99972120164681,-0.20009645460925096,-0.2115903333234515,0
915,0.036599999999999966,4.999392411494816,-0.20174040334725885,-0.21318489188754022,0
916,0.036640000000000006,4.99972120164681,-0.20042524435712428,-0.21182032925252,0
917,0.036680000000000046,5.000049991798719,-0.20042524435712428,-0.2117709126679676,0
918,0.036720000000000086,4.99972120164681,-0.20108282385246334,-0.21237906316984145,0
919,0.036759999999999904,4.99972120164681,-0.20141161359992904,-0.21265841204513103,0
920,0.036799999999999944,4.99972120164681,-0.20108282385246334,-0.21228017007642147,0
921,0.036839999999999984,5.000378781950543,-0.20108282385246334,-0.21223070703518776,0
922,0.036880000000000024,4.99972120164681,-0.20108282385246334,-0.21218123370247038,0
923,0.036920000000000064,5.000049991798719,-0.20108282385246334,-0.21213175060619727,0
924,0.036960000000000104,5.000049991798719,-0.20075403410486176,-0.21175346852611004,0
925,0.03699999999999992,4.99972120164681,-0.20141161359992904,-0.2123615469792319,0
926,0.03703999999999996,5.000049991798719,-0.20042524435712428,-0.21132566851117773,0
927,0.03708,5.000378781950543,-0.19911008536481606,-0.2099609926358688,0
928,0.03712000000000004,5.000049991798719,-0.19779492637033497,-0.20859630962557832,0
929,0.03716000000000008,4.99972120164681,-0.1958221878745412,-0.20657404050549324,0
930,0.0371999999999999,4.99972120164681,-0.1958221878745412,-0.20652450379642398,0
931,0.03723999999999994,5.000707572102282,-0.19154792111690433,-0.20220069476801514,0
932,0.03727999999999998,4.999392411494816,-0.19056155186188928,-0.2011647782029655,0
933,0.03732000000000002,5.000378781950543,-0.18858881334820277,-0.19914248786178063,0
934,0.03736000000000006,5.000378781950543,-0.18562970556853736,-0.19613382425830395,0
935,0.0374000000000001,5.000707572102282,-0.18431454655183616,-0.1947691059419752,0
936,0.03743999999999992,4.999392411494816,-0.18069785924475862,-0.1911028563792899,0
937,0.03747999999999996,5.000049991798719,-0.17938270021995156,-0.18973813266206407,0
938,0.03752,5.000378781950543,-0.17708117192134348,-0.18738703775272222,0
939,0.03756000000000004,5.000049991798719,-0.17510843337441945,-0.1853647311945656,0
940,0.03760000000000008,4.99972120164681,-0.1734644845816094,-0.18367121350715412,0
941,0.037639999999999896,5.000049991798719,-0.1728069050635423,-0.18296406472755433,0
942,0.037679999999999936,4.99972120164681,-0.17313569482264318,-0.18324328537393014,0
943,0.037719999999999976,4.99972120164681,-0.1721493255449364,-0.18220734764733956,0
944,0.037760000000000016,5.000378781950543,-0.17149174602579192,-0.1815002008574752,0
945,0.037800000000000056,4.99972120164681,-0.17116295626601774,-0.18112184551875032,0
946,0.037840000000000096,5.000707572102282,-0.169190217704546,-0.17909954358297878,0
947,0.037879999999999914,5.000378781950543,-0.16886142794382974,-0.17872119316476542,0
948,0.037919999999999954,4.99972120164681,-0.16688868937670803,-0.17669889716836532,0
949,0.037959999999999994,4.999392411494816,-0.16425837127968446,-0.1740190253809559,0
950,0.038000000000000034,4.99972120164681,-0.16162805317406415,-0.17133915783376785,0
951,0.038040000000000074,5.000049991798719,-0.15702499646856433,-0.16668655644468944,0
952,0.038080000000000114,5.000378781950543,-0.15340830903867092,-0.16302032959761764,0
953,0.03811999999999993,5.000378781950543,-0.14979162159258003,-0.15935410850839316,0
954,0.03815999999999997,4.999392411494816,-0.14617493413031024,-0.1556878936839069,0
955,0.03820000000000001,5.000378781950543,-0.14321582619461398,-0.15267926517300517,0
956,0.03824000000000005,4.99972120164681,-0.1405855080204771,-0.1499994337159834,0
957,0.03828000000000009,5.000378781950543,-0.1376264000643745,-0.14699082027383553,0
958,0.03831999999999991,5.000378781950543,-0.13664003074327558,-0.14595495376725365,0
959,0.03835999999999995,4.99972120164681,-0.1369688205171084,-0.14623425515908586,0
960,0.03839999999999999,4.999392411494816,-0.13861276938427458,-0.1478287249498456,0
961,0.03844000000000003,5.000049991798719,-0.14190066710861254,-0.15106715340466909,0
962,0.03848000000000007,5.000049991798719,-0.14551735458997894,-0.1546343819238909,0
963,0.03852000000000011,5.000049991798719,-0.15242193973679719,-0.1614895189155866,0
964,0.03855999999999993,5.000049991798719,-0.15965531458921167,-0.16867345691872138,0
965,0.03859999999999997,4.999392411494816,-0.17116295626601774,-0.18013167355007376,0
966,0.03864000000000001,5.000707572102282,-0.18234180802272937,-0.1912611125622976,0
967,0.03868000000000005,4.99972120164681,-0.19647976737368184,-0.20534967196601872,0
968,0.03872000000000009,5.000049991798719,-0.21423441364495155,-0.22305493158274897,0
969,0.038759999999999906,5.000707572102282,-0.23067390057845844,-0.23944504564898328,0
970,0.038799999999999946,5.000378781950543,-0.25105886389965837,-0.25978065038388604,0
971,0.038839999999999986,4.99972120164681,-0.2674983500627522,-0.2761707927344947,0
972,0.038880000000000026,5.002022732708393,-0.2855817844415817,-0.29420489856660986,0
973,0.038920000000000066,4.998734831190575,-0.3016924801692385,-0.31026628150439867,0
974,0.038960000000000106,5.000378781950543,-0.31615922706654886,-0.32468373185887406,0
975,0.038999999999999924,5.000707572102282,-0.326351707671536,-0.33482693265735136,0
976,0.039039999999999964,4.99972120164681,-0.33621539845039383,-0.34464136085441666,0
977,0.039080000000000004,4.997419670581074,-0.3395032953483747,-0.3478800128828079,0
978,0.039120000000000044,5.000707572102282,-0.34476393035565245,-0.35309142121927256,0
979,0.039160000000000084,5.001036362253937,-0.3483806169020751,-0.35665889977931436,0
980,0.0391999999999999,5.000378781950543,-0.3503533550110579,-0.35858244907108094,0
981,0.03923999999999994,5.000049991798719,-0.3493669859572063,-0.3575469108529815,0
982,0.03927999999999998,5.000378781950543,-0.34805182721674705,-0.3561826030841122,0
983,0.03932000000000002,5.000049991798719,-0.3473942478456647,-0.3554758953023872,0
984,0.03936000000000006,5.000378781950543,-0.3470654581599103,-0.35509799830474176,0
985,0.0394000000000001,4.99972120164681,-0.3454215097290076,-0.35340496414073247,0
986,0.03943999999999992,4.99972120164681,-0.34311998191977994,-0.3510543726562594,0
987,0.03947999999999996,5.000049991798719,-0.34114724379205,-0.34903259338926085,0
988,0.03952,4.99972120164681,-0.3395032953483747,-0.3473396268194424,0
989,0.03956000000000004,4.99972120164681,-0.33687297783112347,-0.34466031466534996,0
990,0.03960000000000008,4.999392411494816,-0.3358866087598167,-0.34362497492170246,0
991,0.0396399999999999,5.000049991798719,-0.33161234276943186,-0.3393017626976933,0
992,0.03967999999999994,4.999392411494816,-0.3286532355313166,-0.3362937341378972,0
993,0.03971999999999998,5.000707572102282,-0.3260229179767166,-0.33361452064579217,0
994,0.03976000000000002,5.000049991798719,-0.3220774416278766,-0.329620174214855,0
995,0.03980000000000006,5.000378781950543,-0.3191183343529189,-0.32661222318343414,0
996,0.0398400000000001,4.999392411494816,-0.3158304373673593,-0.32327550923625936,0
997,0.039879999999999916,5.000049991798719,-0.31418648886930034,-0.3215827710396302,0
998,0.039919999999999956,4.99972120164681,-0.3125425403677243,-0.3198900605697022,0
999,0.039959999999999996,5.000378781950543,-0.3125425403677243,-0.3198413267977139,0
1000,0.040000000000000036,5.000049991798719,-0.3125425403677243,-0.3197926216872007,0
1001,0.040040000000000076,4.99972120164681,-0.31418648886930034,-0.3213878942038109,0
1002,0.040080000000000116,5.000378781950543,-0.31451527856919353,-0.3216680375073134,0
1003,0.040119999999999933,4.99972120164681,-0.31681680646450566,-0.3239209490567878,0
1004,0.040159999999999973,5.000049991798719,-0.3204334931431985,-0.32748904990111943,0
1005,0.040200000000000014,5.000378781950543,-0.32306381071699125,-0.3300708126118908,0
1006,0.040240000000000054,4.999392411494816,-0.326680497366214,-0.3336389758282314,0
1007,0.040280000000000094,5.001036362253937,-0.33062597369133245,-0.33753596060833657,0
1008,0.04031999999999991,5.000049991798719,-0.33325629123010236,-0.3401178189466175,0
1009,0.04035999999999995,5.000049991798719,-0.3352290293782374,-0.3420421306943635,0
1010,0.04039999999999999,5.000378781950543,-0.3372017675212758,-0.3439664756916035,0
1011,0.04044000000000003,5.000049991798719,-0.3372017675212758,-0.3439181162537963,0
1012,0.04048000000000007,5.000049991798719,-0.33555781906909776,-0.3422258425241082,0
1013,0.04052000000000011,5.000378781950543,-0.3309547633841736,-0.3375744961731766,0
1014,0.04055999999999993,4.99972120164681,-0.3260229179767166,-0.332594395161315,0
1015,0.04059999999999997,4.99972120164681,-0.3184607549569337,-0.3249840120477206,0
1016,0.04064000000000001,4.999392411494816,-0.3079394845446151,-0.3144145575000581,0
1017,0.04068000000000005,5.000049991798719,-0.29643184486651636,-0.30285877009183626,0
1018,0.04072000000000009,5.000049991798719,-0.28525299472936166,-0.2916318090754066,0
1019,0.04075999999999991,5.000049991798719,-0.27012866781671335,-0.27645940857882795,0
1020,0.04079999999999995,5.000049991798719,-0.25533313033532373,-0.2616158352522133,0
1021,0.04083999999999999,4.99972120164681,-0.23955122338010482,-0.2457859306326942,0
1022,0.04088000000000003,5.000378781950543,-0.2240981058461004,-0.2302848540563876,0
1023,0.04092000000000007,5.000707572102282,-0.20963135724236776,-0.2157701854722725,0
1024,0.04096000000000011,5.000378781950543,-0.19647976737368184,-0.2025707151238889,0
1025,0.040999999999999925,4.99972120164681,-0.18201301826740535,-0.18805612547620273,0
1026,0.041039999999999965,5.000378781950543,-0.1718205357854315,-0.1778158428275444,0
1027,0.041080000000000005,5.000378781950543,-0.1586689452949745,-0.16461649298039396,0
1028,0.041120000000000045,5.000049991798719,-0.148476462517262,-0.1543762920900688,0
1029,0.041160000000000085,5.000049991798719,-0.1392703489302085,-0.1451225020673917,0
1030,0.0411999999999999,5.000378781950543,-0.12940665568529136,-0.13521117449556216,0
1031,0.04123999999999994,5.000378781950543,-0.12217328056301004,-0.12793020758561083,0
1032,0.04127999999999998,5.000378781950543,-0.11395353602801415,-0.11966291423152303,0
1033,0.04132000000000002,5.000378781950543,-0.10836410969701198,-0.11402598247814244,0
1034,0.04136000000000006,5.000049991798719,-0.10310347311534969,-0.10871788429774609,0
1035,0.0414000000000001,5.000378781950543,-0.0971852569206733,-0.10275225075370226,0
1036,0.04143999999999992,4.999392411494816,-0.09258219985091413,-0.09810182100845144,0
1037,0.04147999999999996,5.001036362253937,-0.08896551213519292,-0.0944378057144053,0
1038,0.04152,5.000378781950543,-0.08502003460903816,-0.0904450461291601,0
1039,0.04156000000000004,5.000049991798719,-0.08304729583888733,-0.08842507123999349,0
1040,0.04160000000000008,4.999392411494816,-0.08008818767482774,-0.08541877331660064,0
1041,0.0416399999999999,5.000049991798719,-0.07811544889290346,-0.08339889155339691,0
1042,0.04167999999999994,5.000378781950543,-0.07712907950017713,-0.08236542637457495,0
1043,0.04171999999999998,4.99972120164681,-0.07482755091257769,-0.08001684961194871,0
1044,0.04176000000000002,5.000049991798719,-0.07384118151593398,-0.07898348006598244,0
1045,0.04180000000000006,5.000378781950543,-0.07219723251891826,-0.07729257935872919,0
1046,0.0418400000000001,4.99972120164681,-0.07022449371819571,-0.07527293769897575,0
1047,0.04187999999999992,5.000049991798719,-0.06858054471400928,-0.07358213509782346,0
1048,0.04191999999999996,5.000049991798719,-0.06595022630053791,-0.0709050127590416,0
1049,0.04196,5.000378781950543,-0.06562143649826817,-0.07052946911143515,0
1050,0.04200000000000004,4.999392411494816,-0.06397748748496758,-0.06883881673981385,0
1051,0.04204000000000008,5.000049991798719,-0.06233353846841526,-0.06714821525771864,0
1052,0.042079999999999895,5.000049991798719,-0.06200474866471477,-0.06677282428573067,0
1053,0.042119999999999935,5.000378781950543,-0.059703220035172325,-0.06442474618834498,0
1054,0.042159999999999975,5.000049991798719,-0.057730481204784426,-0.06240550999245381,0
1055,0.042200000000000015,4.999392411494816,-0.05805927101017365,-0.06268785493527806,0
1056,0.042240000000000055,5.000049991798719,-0.05542895256342596,-0.06001114452819967,0
1057,0.042280000000000095,5.000378781950543,-0.05510016275699865,-0.05963601606166552,0
1058,0.04231999999999991,5.000049991798719,-0.05444258314375501,-0.058932151485218076,0
1059,0.04235999999999995,5.000049991798719,-0.05279863410837703,-0.05724197157890398,0
1060,0.04239999999999999,4.999392411494816,-0.05181226468559495,-0.056209425771499455,0
1061,0.04244000000000003,4.999392411494816,-0.05115468506975916,-0.05550572465007769,0
1062,0.04248000000000007,5.000707572102282,-0.050168315645034,-0.05447328899019893,0
1063,0.04252000000000011,5.000049991798719,-0.0491819462191435,-0.05344090898965215,0
1064,0.04255999999999993,4.999063621342738,-0.050168315645034,-0.0543813238901138,0
1065,0.04259999999999997,5.000049991798719,-0.0491819462191435,-0.05334905637541354,0
1066,0.04264000000000001,5.000378781950543,-0.0498395258365333,-0.05396079472666243,0
1067,0.04268000000000005,5.000378781950543,-0.0491819462191435,-0.053257431050504456,0
1068,0.04272000000000009,5.000049991798719,-0.0491819462191435,-0.05321170458246316,0
1069,0.04275999999999991,4.99972120164681,-0.0498395258365333,-0.053823615704538474,0
1070,0.04279999999999995,4.99972120164681,-0.0498395258365333,-0.053778005562592934,0
1071,0.04283999999999999,4.999392411494816,-0.05115468506975916,-0.0550476133865232,0
1072,0.04288000000000003,5.000378781950543,-0.05148347487774181,-0.05533091089577569,0
1073,0.04292000000000007,5.000049991798719,-0.052469844300912574,-0.05627184750732861,0
1074,0.04296000000000011,5.000378781950543,-0.05214105449331856,-0.05589768475040391,0
1075,0.04299999999999993,5.000049991798719,-0.054113793336938706,-0.057825110880779296,0
1076,0.04303999999999997,5.000049991798719,-0.05510016275699865,-0.058766228196099446,0
1077,0.04308000000000001,4.99972120164681,-0.05510016275699865,-0.05872103707090037,0
1078,0.04312000000000005,4.99972120164681,-0.05608653217589139,-0.05966227671378421,0
1079,0.04316000000000009,4.999392411494816,-0.05805927101017365,-0.06158994748950736,0
1080,0.043199999999999905,5.000378781950543,-0.06036079964426265,-0.06384647014935296,0
1081,0.043239999999999945,4.99972120164681,-0.06003200983978245,-0.06347273682041338,0
1082,0.043279999999999985,5.000707572102282,-0.06134716905692379,-0.06474301532694704,0
1083,0.043320000000000025,5.000049991798719,-0.06233353846841526,-0.06568456720434507,0
1084,0.043360000000000065,4.999392411494816,-0.06397748748496758,-0.06728376222457216,0
1085,0.043400000000000105,4.99972120164681,-0.06562143649826817,-0.06888302113915712,0
1086,0.04343999999999992,5.000378781950543,-0.06693659570656622,-0.07015355450477412,0
1087,0.04347999999999996,5.000049991798719,-0.06825175491278114,-0.07142415248134809,0
1088,0.04352,4.99972120164681,-0.06890933451510713,-0.07203723582265564,0
1089,0.04356000000000004,5.000049991798719,-0.06956691411691203,-0.07265038448622041,0
1090,0.04360000000000008,5.000049991798719,-0.06956691411691203,-0.07260601922348431,0
1091,0.0436399999999999,4.99972120164681,-0.0715396529191989,-0.07453445878983156,0
1092,0.04367999999999994,4.99972120164681,-0.07186844271912378,-0.07481901573046923,0
1093,0.04371999999999998,4.99972120164681,-0.07285481211811588,-0.0757612189952428,0
1094,0.04376000000000002,5.000378781950543,-0.07351239171679176,-0.07637469953174236,0
1095,0.04380000000000006,5.000049991798719,-0.07449876111382696,-0.07731703728417194,0
1096,0.0438400000000001,5.000378781950543,-0.07614271010627514,-0.07891702239366566,0
1097,0.04387999999999992,5.000378781950543,-0.07515634071119788,-0.07788675721991495,0
1098,0.04391999999999996,5.000049991798719,-0.07647149990437309,-0.07915808907987365,0
1099,0.04396,5.000049991798719,-0.07778665909545869,-0.08042948972291897,0
1100,0.04400000000000004,4.99972120164681,-0.07811544889290346,-0.0807145900957586,0
1101,0.04404000000000008,5.001036362253937,-0.07844423869021762,-0.08099975992869868,0
1102,0.0440799999999999,5.000049991798719,-0.07811544889290346,-0.08062741996257117,0
1103,0.04411999999999994,5.000378781950543,-0.07877302848740105,-0.08124151951767672,0
1104,0.04415999999999998,5.000049991798719,-0.0791018182844538,-0.08152689973714672,0
1105,0.04420000000000002,5.000049991798719,-0.07877302848740105,-0.08115477115523323,0
1106,0.04424000000000006,5.000049991798719,-0.07844423869021762,-0.08078271369534684,0
1107,0.0442800000000001,5.000378781950543,-0.0791018182844538,-0.08139709707699438,0
1108,0.044319999999999915,5.000049991798719,-0.07778665909545869,-0.08003881345199942,0
1109,0.044359999999999955,5.000378781950543,-0.07811544889290346,-0.08032455091502316,0
1110,0.044399999999999995,4.99972120164681,-0.07778665909545869,-0.07995278120823884,0
1111,0.044440000000000035,4.99972120164681,-0.07712907950017713,-0.07925229445071236,0
1112,0.044480000000000075,5.000378781950543,-0.07745786929788322,-0.07953825015378879,0
1113,0.044520000000000115,5.000378781950543,-0.07647149990437309,-0.07850912005228983,0
1114,0.04455999999999993,5.000049991798719,-0.07614271010627514,-0.07813764325037159,0
1115,0.04459999999999997,5.000049991798719,-0.07581392030804664,-0.0777662404685186,0
1116,0.04464000000000001,5.000378781950543,-0.07548513050968754,-0.07739491202125481,0
1117,0.04468000000000005,5.000049991798719,-0.07581392030804664,-0.07768123781844716,0
1118,0.04472000000000009,4.99972120164681,-0.07548513050968754,-0.07731005897816978,0
1119,0.04475999999999991,5.000049991798719,-0.07416997131494572,-0.07595258601075866,0
1120,0.04479999999999995,5.000049991798719,-0.07449876111382696,-0.07623913761470724,0
1121,0.04483999999999999,5.000707572102282,-0.07384118151593398,-0.07553939570659116,0
1122,0.04488000000000003,5.000049991798719,-0.07351239171679176,-0.07516851978739059,0
1123,0.04492000000000007,5.000049991798719,-0.07318360191751903,-0.07479772036215926,0
1124,0.04496000000000011,5.000378781950543,-0.07318360191751903,-0.0747557875327132,0
1125,0.04499999999999993,5.000049991798719,-0.07252602231858225,-0.07405635220173107,0
1126,0.04503999999999997,5.000049991798719,-0.07318360191751903,-0.07467215346538436,0
1127,0.04508000000000001,4.99972120164681,-0.07186844271912378,-0.07331529362629913,0
1128,0.04512000000000005,5.000049991798719,-0.0715396529191989,-0.0729448811765783,0
1129,0.04516000000000009,5.000049991798719,-0.07055328351864205,-0.07191696741188644,0
1130,0.04519999999999991,5.000049991798719,-0.07088207331895803,-0.07220429142695978,0
1131,0.04523999999999995,5.000049991798719,-0.07121086311914367,-0.0724916943124885,0
1132,0.04527999999999999,4.999392411494816,-0.07055328351864205,-0.07179280695806906,0
1133,0.04532000000000003,5.000049991798719,-0.06989570391761903,-0.07109399905247832,0
1134,0.04536000000000007,5.000049991798719,-0.06989570391761903,-0.07105285048432797,0
1135,0.04540000000000011,5.000049991798719,-0.06956691411691203,-0.07068299213740953,0
1136,0.045439999999999925,5.000378781950543,-0.06956691411691203,-0.07064200389711062,0
1137,0.045479999999999965,5.000049991798719,-0.06956691411691203,-0.07060109624514843,0
1138,0.045520000000000005,4.99972120164681,-0.07088207331895803,-0.07187542866444124,0
1139,0.045560000000000045,5.000707572102282,-0.0715396529191989,-0.07249226263045663,0
1140,0.045600000000000085,5.000049991798719,-0.07088207331895803,-0.0717940188222807,0
1141,0.0456399999999999,4.998406041038327,-0.07121086311914367,-0.07208222611702683,0
1142,0.04567999999999994,5.001036362253937,-0.07088207331895803,-0.07171293578854229,0
1143,0.04571999999999998,5.000049991798719,-0.07022449371819571,-0.07101493790970481,0
1144,0.04576000000000002,5.001036362253937,-0.0715396529191989,-0.07228976135437551,0
1145,0.04580000000000006,5.000049991798719,-0.06989570391761903,-0.0706055593881586,0
1146,0.0458400000000001,5.001693942556992,-0.07022449371819571,-0.07089417928417871,0
1147,0.04587999999999992,4.999392411494816,-0.06956691411691203,-0.07019651310523362,0
1148,0.04591999999999996,5.000049991798719,-0.06858054471400928,-0.06917014071680735,0
1149,0.04596,5.000378781950543,-0.06726538550831525,-0.06781506238139667,0
1150,0.04600000000000004,4.99972120164681,-0.06792296511142272,-0.06843280697268783,0
1151,0.04604000000000008,5.000378781950543,-0.06627901610267752,-0.06674910733054298,0
1152,0.0460799999999999,5.000378781950543,-0.06562143649826817,-0.06605186173008834,0
1153,0.04611999999999994,5.000378781950543,-0.06595022630053791,-0.06634107043102463,0
1154,0.04615999999999998,5.000378781950543,-0.06496385689333826,-0.06531520507297914,0
1155,0.04620000000000002,5.000707572102282,-0.06397748748496758,-0.06428942511844296,0
1156,0.04624000000000006,5.000049991798719,-0.0629911180754263,-0.06326373082002484,0
1157,0.0462800000000001,5.000707572102282,-0.06233353846841526,-0.06256691223244823,0
1158,0.04631999999999992,5.001036362253937,-0.0626623282719858,-0.06285654921319983,0
1159,0.04635999999999996,4.99972120164681,-0.06167595886088427,-0.06183111338487232,0
1160,0.0464,4.99972120164681,-0.06200474866471477,-0.06212092342332612,0
1161,0.04644000000000004,5.000707572102282,-0.06200474866471477,-0.06208203055446279,0
1162,0.04648000000000008,5.000707572102282,-0.06101837925283336,-0.061056855413302025,0
1163,0.046519999999999895,4.99972120164681,-0.060689589448612954,-0.06068934726086164,0
1164,0.046559999999999935,5.000378781950543,-0.06036079964426265,-0.06032192672922948,0
1165,0.046599999999999975,5.000049991798719,-0.059374430230432304,-0.059297014447336455,0
1166,0.046640000000000015,5.000378781950543,-0.059045640425562415,-0.05892976987030518,0
1167,0.046680000000000055,5.000049991798719,-0.05838806081543309,-0.05823382381899814,0
1168,0.046720000000000095,4.99972120164681,-0.05805927101017365,-0.05786675613702641,0
1169,0.04675999999999991,4.99972120164681,-0.05805927101017365,-0.05782856705665981,0
1170,0.04679999999999995,5.000707572102282,-0.05674411178783788,-0.05647530778058035,0
1171,0.04683999999999999,4.99972120164681,-0.05707290159361651,-0.05676608678791184,0
1172,0.04688000000000003,5.000049991798719,-0.05510016275699865,-0.05475542663521199,0
1173,0.04692000000000007,4.99972120164681,-0.05674411178783788,-0.056361544057796864,0
1174,0.04696000000000011,5.000378781950543,-0.05510016275699865,-0.05467985335038625,0
1175,0.04699999999999993,5.000378781950543,-0.054113793336938706,-0.05365583240768543,0
1176,0.04703999999999997,5.000049991798719,-0.05378500352999273,-0.05328948145266846,0
1177,0.04708000000000001,4.999063621342738,-0.05214105449331856,-0.05160806186152356,0
1178,0.04712000000000005,4.999392411494816,-0.05444258314375501,-0.05387221076850987,0
1179,0.04716000000000009,4.999063621342738,-0.050168315645034,-0.04956065455316874,0
1180,0.04719999999999991,4.99972120164681,-0.05510016275699865,-0.05445530418954064,0
1181,0.04723999999999995,5.003666683464122,-0.05148347487774181,-0.05080151028830299,0
1182,0.04727999999999999,4.999063621342738,-0.05214105449331856,-0.05142207554648193,0
1183,0.04732000000000003,5.001036362253937,-0.054113793336938706,-0.053357891906643806,0
1184,0.04736000000000007,4.999063621342738,-0.05148347487774181,-0.050690743045669534,0
1185,0.04740000000000011,4.999063621342738,-0.05148347487774181,-0.05065400493169811,0
1186,0.04743999999999993,5.000049991798719,-0.05049710545340523,-0.04963098988570419,0
1187,0.04747999999999997,5.000049991798719,-0.05115468506975916,-0.0502520165756056,0
1188,0.04752000000000001,5.000049991798719,-0.05115468506975916,-0.05021555654563073,0
1189,0.04756000000000005,5.000378781950543,-0.0498395258365333,-0.04886403037856249,0
1190,0.04760000000000009,5.000378781950543,-0.050168315645034,-0.049156546547389324,0
1191,0.047639999999999905,5.000707572102282,-0.050168315645034,-0.049120366398300946,0
1192,0.047679999999999945,5.000378781950543,-0.0491819462191435,-0.048097910508705544,0
1193,0.047719999999999985,5.000049991798719,-0.048853156410254436,-0.047733128114673395,0
1194,0.047760000000000025,5.000049991798719,-0.0498395258365333,-0.04868359902592942,0
1195,0.047800000000000065,5.000049991798719,-0.04852436660123595,-0.047332635535667855,0
1196,0.047840000000000105,5.000049991798719,-0.05148347487774181,-0.05025603400558662,0
1197,0.04787999999999992,5.000049991798719,-0.0498395258365333,-0.04857646979286606,0
1198,0.04791999999999996,5.000049991798719,-0.05049710545340523,-0.04919852905837832,0
1199,0.04796,5.000378781950543,-0.0498395258365333,-0.04850552409375522,0
1200,0.04800000000000004,5.000378781950543,-0.0498395258365333,-0.048470193931446776,0
1201,0.04804000000000008,5.000049991798719,-0.050168315645034,-0.048763748943293606,0
1202,0.0480799999999999,5.000378781950543,-0.04951073602790314,-0.048071030073753546,0
1203,0.04811999999999994,5.000707572102282,-0.0498395258365333,-0.04836477635118716,0
1204,0.04815999999999998,5.000378781950543,-0.050168315645034,-0.04865861852504999,0
1205,0.04820000000000002,5.000378781950543,-0.050168315645034,-0.04862376696069434,0
1206,0.04824000000000006,5.000378781950543,-0.05082589526164695,-0.04924659125533548,0
1207,0.0482800000000001,5.000049991798719,-0.05049710545340523,-0.048883142537985036,0
1208,0.04831999999999992,5.000378781950543,-0.05082589526164695,-0.049177370018837985,0
1209,0.04835999999999996,5.000049991798719,-0.05115468506975916,-0.049471694248515496,0
1210,0.0484,5.000049991798719,-0.05049710545340523,-0.04877974596829232,0
1211,0.04844000000000004,5.000378781950543,-0.05115468506975916,-0.04940305399933037,0
1212,0.04848000000000008,5.000378781950543,-0.05181226468559495,-0.05002645927076868,0
1213,0.0485199999999999,5.000707572102282,-0.05082589526164695,-0.049006012904083435,0
1214,0.04855999999999994,4.99972120164681,-0.05082589526164695,-0.04897203352212476,0
1215,0.04859999999999998,4.99972120164681,-0.05148347487774181,-0.04959573147453486,0
1216,0.04864000000000002,5.000378781950543,-0.05049710545340523,-0.048575578260660335,0
1217,0.04868000000000006,5.000378781950543,-0.05148347487774181,-0.049528261923856565,0
1218,0.0487200000000001,5.000049991798719,-0.05049710545340523,-0.04850830491940622,0
1219,0.048759999999999915,5.000049991798719,-0.05082589526164695,-0.04880360547956844,0
1220,0.048799999999999955,5.000378781950543,-0.05148347487774181,-0.049427794329004876,0
1221,0.048839999999999995,5.000707572102282,-0.05049710545340523,-0.04840813276719738,0
1222,0.048880000000000035,5.000049991798719,-0.050168315645034,-0.04804614959668943,0
1223,0.048920000000000075,4.99972120164681,-0.05181226468559495,-0.049657004194974985,0
1224,0.048960000000000115,5.000378781950543,-0.05115468506975916,-0.048966429199633316,0
1225,0.04899999999999993,5.000378781950543,-0.0498395258365333,-0.04761837379096079,0
1226,0.04903999999999997,5.000049991798719,-0.0491819462191435,-0.046927997341855265,0
1227,0.04908000000000001,5.000378781950543,-0.0491819462191435,-0.046895299991924655,0
1228,0.04912000000000005,4.99972120164681,-0.0498395258365333,-0.047520281877606124,0
1229,0.04916000000000009,5.000707572102282,-0.05049710545340523,-0.04814536351581261,0
1230,0.04919999999999991,5.000378781950543,-0.050168315645034,-0.04778417561502318,0
1231,0.04923999999999995,5.000049991798719,-0.050168315645034,-0.04775187754044119,0
1232,0.04927999999999999,5.000378781950543,-0.0498395258365333,-0.047390889805168424,0
1233,0.04932000000000003,5.000049991798719,-0.050168315645034,-0.047687581963065856,0
1234,0.04936000000000007,5.000378781950543,-0.05082589526164695,-0.048313164331988845,0
1235,0.04940000000000011,5.000378781950543,-0.04951073602790314,-0.046966108378598936,0
1236,0.04943999999999993,5.000049991798719,-0.0498395258365333,-0.04726310211914425,0
1237,0.04947999999999997,5.000707572102282,-0.0498395258365333,-0.047231406824525785,0
1238,0.04952000000000001,5.000049991798719,-0.0498395258365333,-0.047199812423667026,0
1239,0.04956000000000005,5.000378781950543,-0.05115468506975916,-0.04848347826847629,0
1240,0.04960000000000009,5.000378781950543,-0.0498395258365333,-0.0471369267763484,0
1241,0.049639999999999906,5.000049991798719,-0.050168315645034,-0.04743442557092509,0
1242,0.049679999999999946,4.99972120164681,-0.05049710545340523,-0.047732025724205596,0
1243,0.049719999999999986,5.000049991798719,-0.05049710545340523,-0.04770093754019619,0
1244,0.049760000000000026,5.000378781950543,-0.05049710545340523,-0.0476699509379101,0
1245,0.049800000000000066,5.000378781950543,-0.04951073602790314,-0.04665269660088178,0
1246,0.049840000000000106,4.999392411494816,-0.0498395258365333,-0.046950703296177426,0
1247,0.049879999999999924,5.000378781950543,-0.05049710545340523,-0.04757760170373451,0
1248,0.049919999999999964,5.001036362253937,-0.0491819462191435,-0.04623186326840245,0
1249,0.049960000000000004,5.000378781950543,-0.0498395258365333,-0.04685896579558921,0
1250,0.050000000000000044,5.000049991798719,-0.05049710545340523,-0.047486170534147,0
1251,0.050040000000000084,4.99972120164681,-0.0491819462191435,-0.04614073873288144,0
1252,0.0500799999999999,4.99972120164681,-0.05049710545340523,-0.04742572780927179,0
1253,0.05011999999999994,5.000378781950543,-0.0498395258365333,-0.04673808053988504,0
1254,0.05015999999999998,5.000049991798719,-0.04951073602790314,-0.04637932567872388,0
1255,0.05020000000000002,5.000378781950543,-0.05082589526164695,-0.04766462255295206,0
1256,0.05024000000000006,5.000049991798719,-0.05148347487774181,-0.0482924425939841,0
1257,0.0502800000000001,5.000378781950543,-0.05148347487774181,-0.04826278589321842,0
1258,0.05031999999999992,5.000049991798719,-0.05115468506975916,-0.0479044423470196,0
1259,0.05035999999999996,5.000707572102282,-0.05049710545340523,-0.04721741204166058,0
1260,0.0504,4.99972120164681,-0.05148347487774181,-0.04817443391127474,0
1261,0.05044000000000004,5.000049991798719,-0.05148347487774181,-0.048145189574318153,0
1262,0.05048000000000008,5.000049991798719,-0.05082589526164695,-0.04745846892092839,0
1263,0.0505199999999999,4.99972120164681,-0.05214105449331856,-0.048744590495276824,0
1264,0.05055999999999994,5.000378781950543,-0.05115468506975916,-0.04772928687309125,0
1265,0.05059999999999998,4.99972120164681,-0.052469844300912574,-0.04901561544145744,0
1266,0.05064000000000002,5.000049991798719,-0.05148347487774181,-0.048000518966898775,0
1267,0.05068000000000006,5.000378781950543,-0.05181226468559495,-0.048300685408743466,0
1268,0.0507200000000001,4.99972120164681,-0.05181226468559495,-0.048272165800516076,0
1269,0.050759999999999916,4.99972120164681,-0.05214105449331856,-0.04857253982861781,0
1270,0.050799999999999956,5.000378781950543,-0.05181226468559495,-0.04821543813912679,0
1271,0.050839999999999996,5.000378781950543,-0.05181226468559495,-0.04818723022288854,0
1272,0.050880000000000036,4.99972120164681,-0.05181226468559495,-0.048159126338281566,0
1273,0.050920000000000076,5.000707572102282,-0.052469844300912574,-0.04878870616515438,0
1274,0.050960000000000116,4.99972120164681,-0.05312742391571186,-0.04941839015063201,0
1275,0.050999999999999934,5.000049991798719,-0.05181226468559495,-0.04807543951170917,0
1276,0.051039999999999974,5.000378781950543,-0.05148347487774181,-0.04771896257539143,0
1277,0.051080000000000014,4.99972120164681,-0.05312742391571186,-0.04933532882349828,0
1278,0.051120000000000054,5.000049991798719,-0.05279863410837703,-0.0489790606215979,0
1279,0.051160000000000094,5.000707572102282,-0.053456213722917104,-0.049609266292004406,0
1280,0.05119999999999991,4.99972120164681,-0.05378500352999273,-0.049910786658952405,0
1281,0.05123999999999995,5.000049991798719,-0.05444258314375501,-0.05054120138860857,0
1282,0.05127999999999999,4.99972120164681,-0.053456213722917104,-0.04952777169014505,0
1283,0.05132000000000003,5.000707572102282,-0.054113793336938706,-0.05015839568192609,0
1284,0.05136000000000007,4.99972120164681,-0.05444258314375501,-0.05046033456923882,0
1285,0.05140000000000011,5.000049991798719,-0.054771372950441696,-0.05076237820496002,0
1286,0.05143999999999993,5.000378781950543,-0.05444258314375501,-0.05040694702009804,0
1287,0.05147999999999997,5.000049991798719,-0.054771372950441696,-0.050709200284104555,0
1288,0.05152000000000001,4.99972120164681,-0.05444258314375501,-0.050353978811392336,0
1289,0.05156000000000005,5.000378781950543,-0.05444258314375501,-0.05032765206163761,0
1290,0.05160000000000009,5.000049991798719,-0.054771372950441696,-0.05063022007291501,0
1291,0.05163999999999991,5.000378781950543,-0.054771372950441696,-0.05060410326838627,0
1292,0.05167999999999995,5.000049991798719,-0.054771372950441696,-0.050578091489735605,0
1293,0.05171999999999999,4.999392411494816,-0.054771372950441696,-0.05055218477042506,0
1294,0.05176000000000003,5.000378781950543,-0.05510016275699865,-0.05085517294894057,0
1295,0.05180000000000007,5.000049991798719,-0.05510016275699865,-0.050829476442566135,0
1296,0.05184000000000011,5.000378781950543,-0.05542895256342596,-0.05113267489315493,0
1297,0.051879999999999926,5.000049991798719,-0.05444258314375501,-0.050120819295523394,0
1298,0.051919999999999966,5.000049991798719,-0.05542895256342596,-0.05108180774092899,0
1299,0.051960000000000006,5.000049991798719,-0.05510016275699865,-0.05072774218822651,0
1300,0.052000000000000046,5.000378781950543,-0.05608653217589139,-0.05168894111160896,0
1301,0.052040000000000086,5.000049991798719,-0.056415321981929514,-0.05199266569415825,0
1302,0.052079999999999904,5.000049991798719,-0.05575774236972354,-0.05131012615022576,0
1303,0.052119999999999944,5.000049991798719,-0.05608653217589139,-0.05161406133465665,0
1304,0.052159999999999984,4.99972120164681,-0.05707290159361651,-0.05257568145735034,0
1305,0.052200000000000024,4.99972120164681,-0.056415321981929514,-0.05189345789254457,0
1306,0.052240000000000064,5.000707572102282,-0.05707290159361651,-0.05252649890672609,0
1307,0.052280000000000104,5.000049991798719,-0.05674411178783788,-0.0521732758712517,0
1308,0.05231999999999992,5.000378781950543,-0.05674411178783788,-0.05214894802006037,0
1309,0.05235999999999996,5.000049991798719,-0.05674411178783788,-0.05212472555656872,0
1310,0.0524,4.99972120164681,-0.057730481204784426,-0.0530869779054218,0
1311,0.05244000000000004,4.999392411494816,-0.057401691399265334,-0.05273417643341191,0
1312,0.05248000000000008,5.000049991798719,-0.05805927101017365,-0.05336784978414505,0
1313,0.0525199999999999,5.000049991798719,-0.057730481204784426,-0.053015259128119885,0
1314,0.05255999999999994,5.000049991798719,-0.05805927101017365,-0.05332035349414965,0
1315,0.05259999999999998,5.000049991798719,-0.05805927101017365,-0.05329676346632009,0
1316,0.05264000000000002,4.99972120164681,-0.058716850620562686,-0.05393085845918144,0
1317,0.05268000000000006,5.000049991798719,-0.059045640425562415,-0.054236269054248554,0
1318,0.0527200000000001,5.000378781950543,-0.059045640425562415,-0.054212995247727894,0
1319,0.05275999999999992,4.99972120164681,-0.059374430230432304,-0.05451861664383252,0
1320,0.05279999999999996,5.000049991798719,-0.06036079964426265,-0.05548192303952561,0
1321,0.05284,4.99972120164681,-0.06003200983978245,-0.055130175598940595,0
1322,0.05288000000000004,4.99972120164681,-0.060689589448612954,-0.055764902943637853,0
1323,0.05292000000000008,4.99972120164681,-0.06101837925283336,-0.05607094584417334,0
1324,0.052959999999999896,4.999392411494816,-0.06200474866471477,-0.05703467369983496,0
1325,0.052999999999999936,5.000049991798719,-0.0629911180754263,-0.05799850688735132,0
1326,0.053039999999999976,5.000049991798719,-0.06233353846841526,-0.057318496374274386,0
1327,0.053080000000000016,5.000378781950543,-0.06331990787873677,-0.05828254017831205,0
1328,0.053120000000000056,5.000049991798719,-0.06529264669586828,-0.060233058670145334,0
1329,0.053160000000000096,5.000049991798719,-0.06562143649826817,-0.06053973340798982,0
1330,0.053199999999999914,5.000378781950543,-0.06693659570656622,-0.06183288279078902,0
1331,0.053239999999999954,5.000049991798719,-0.06858054471400928,-0.06345492718866289,0
1332,0.053279999999999994,5.000378781950543,-0.06956691411691203,-0.06441949717336132,0
1333,0.053320000000000034,5.000049991798719,-0.06956691411691203,-0.06439780292052188,0
1334,0.053360000000000074,4.99972120164681,-0.07022449371819571,-0.06503379340689865,0
1335,0.053400000000000114,5.000049991798719,-0.07186844271912378,-0.06665625840199058,0
1336,0.05343999999999993,4.99972120164681,-0.07219723251891826,-0.0669636692747317,0
1337,0.05347999999999997,4.999392411494816,-0.07384118151593398,-0.06858634439176578,0
1338,0.05352000000000001,5.000378781950543,-0.07449876111382696,-0.06922275512361736,0
1339,0.05356000000000005,5.000049991798719,-0.07482755091257769,-0.06953048103571802,0
1340,0.05360000000000009,4.999063621342738,-0.07416997131494572,-0.0688519424948639,0
1341,0.05363999999999991,5.000049991798719,-0.07416997131494572,-0.06883108845769473,0
1342,0.05367999999999995,4.99972120164681,-0.07285481211811588,-0.06749518009096522,0
1343,0.05371999999999999,5.000378781950543,-0.07022449371819571,-0.06484421734822586,0
1344,0.05376000000000003,5.000049991798719,-0.07022449371819571,-0.06482367779089585,0
1345,0.05380000000000007,5.000049991798719,-0.06825175491278114,-0.0628305041706501,0
1346,0.05384000000000011,4.999392411494816,-0.06660780590468694,-0.061166225045837325,0
1347,0.05387999999999993,4.999392411494816,-0.06562143649826817,-0.06015963017503351,0
1348,0.05391999999999997,5.000049991798719,-0.06233353846841526,-0.05685161128596046,0
1349,0.05396000000000001,5.000378781950543,-0.06003200983978245,-0.05453006635471758,0
1350,0.05400000000000005,5.000049991798719,-0.057730481204784426,-0.05220862592378182,0
1351,0.05404000000000009,4.999392411494816,-0.05542895256342596,-0.04988728994184077,0
1352,0.054079999999999906,4.999392411494816,-0.05378500352999273,-0.04822363797048669,0
1353,0.054119999999999946,5.000049991798719,-0.0491819462191435,-0.04360098207031213,0
1354,0.054159999999999986,5.000049991798719,-0.04622283793448369,-0.04062237948948666,0
1355,0.054200000000000026,5.000049991798719,-0.04392130926139491,-0.038301460756590175,0
1356,0.054240000000000066,4.999392411494816,-0.04030462133375036,-0.03466548694733164,0
1357,0.054280000000000106,5.000049991798719,-0.03668793339048888,-0.0310296172411266,0
1358,0.054319999999999924,5.000049991798719,-0.035043984320212454,-0.029366590465698117,0
1359,0.054359999999999964,4.99972120164681,-0.030769716722423582,-0.025073349158317743,0
1360,0.054400000000000004,4.999063621342738,-0.028796977823800904,-0.02308174048208461,0
1361,0.054440000000000044,5.000378781950543,-0.025509079649145103,-0.019775076396874952,0
1362,0.054480000000000084,5.000049991798719,-0.021892391642189743,-0.016139726280156724,0
1363,0.0545199999999999,5.000049991798719,-0.019590862902407788,-0.013819639163799496,0
1364,0.05455999999999994,4.99972120164681,-0.0166317545134594,-0.010842076062525713,0
1365,0.05459999999999998,5.000378781950543,-0.01301506646843685,-0.00720703689915933,0
1366,0.05464000000000002,5.000378781950543,-0.009727168232258263,-0.0039008910670229047,0
1367,0.05468000000000006,5.000378781950543,-0.006768059808773,-0.0009236384970465472,0
1368,0.0547200000000001,5.000378781950543,-0.0031513717215847087,0.002711090361405405,0
1369,0.05475999999999992,5.000049991798719,0.001780475694892425,0.007660875249474425,0
1370,0.05479999999999996,5.000378781950543,0.005725953648695714,0.011624187452066281,0
1371,0.05484,5.000049991798719,0.009013851957515154,0.014929816865048656,0
1372,0.05488000000000004,4.999392411494816,0.014603279111640999,0.020536872058194877,0
1373,0.05492000000000008,5.000049991798719,0.019863916466630674,0.02581503446784736,0
1374,0.0549599999999999,4.99972120164681,0.023809394504130166,0.02977793465773526,0
1375,0.05499999999999994,4.99972120164681,0.030385191273714543,0.03637105076081104,0
1376,0.05503999999999998,5.000049991798719,0.037289777936047624,0.043292854022406485,0
1377,0.05508000000000002,4.99972120164681,0.04320799511934159,0.049228185156688586,0
1378,0.05512000000000006,5.000707572102282,0.04978379203736312,0.0558209934646616,0
1379,0.0551600000000001,5.000049991798719,0.05603079915588792,0.0620849095006174,0
1380,0.055199999999999916,5.000049991798719,0.061949016467688606,0.06801993334711981,0
1381,0.055239999999999956,5.000378781950543,0.06885360338252611,0.07494122450499172,0
1382,0.055279999999999996,5.000378781950543,0.07411424106876553,0.08021846423492718,0
1383,0.055320000000000036,5.000707572102282,0.08036124836247038,0.0864819714665814,0
1384,0.055360000000000076,4.99972120164681,0.08562188611819377,0.09175900714935806,0
1385,0.055400000000000116,4.99972120164681,0.08660825570091973,0.09276167274434685,0
1386,0.055439999999999934,5.000707572102282,0.09186889349424851,0.09803850473250514,0
1387,0.055479999999999974,5.002022732708393,0.09121131376835284,0.09739701748261023,0
1388,0.055520000000000014,5.000378781950543,0.09351284281114798,0.09971453738242542,0
1389,0.055560000000000054,4.999063621342738,0.08956736445577489,0.0957849483661791,0
1390,0.055600000000000094,5.001693942556992,0.09186889349424851,0.09810226532820926,0
1391,0.05563999999999991,5.000378781950543,0.0902249441804355,0.0964740026259375,0
1392,0.05567999999999995,4.997748460733576,0.08660825570091973,0.09287289955073005,0
1393,0.05571999999999999,4.999392411494816,0.08101882808020172,0.0872989562330938,0
1394,0.05576000000000003,4.999063621342738,0.0760869802093063,0.08238249167128009,0
1395,0.05580000000000007,5.000378781950543,0.06951118309156513,0.07582197697706261,0
1396,0.05584000000000011,5.000378781950543,0.06227780631952985,0.0686037818526461,0
1397,0.05587999999999993,5.000378781950543,0.05635958900548195,0.06270064552117213,0
1398,0.05591999999999997,4.999392411494816,0.04846863264974746,0.054824669595029935,0
