,seconds,Trig,EMG_amplitude,EMG_amplitude_filter,peaks
0,0.0,5.000049991798719,-0.013343856291351444,-0.04898178461576263,0
1,4.0000000000040004e-05,5.000707572102282,-0.01301506646843685,-0.04869039583863834,0
2,8.000000000008001e-05,5.000707572102282,-0.014001435936796827,-0.049714012102970065,0
3,0.00011999999999989797,5.000049991798719,-0.014987805404005308,-0.050737473838182195,0
4,0.00015999999999993797,4.999392411494816,-0.014987805404005308,-0.05077441130127542,0
5,0.00019999999999997797,5.000707572102282,-0.014330225759327644,-0.05015361403904933,0
6,0.00024000000000001798,5.000049991798719,-0.01597417487006185,-0.051834190177077105,0
7,0.000280000000000058,5.000049991798719,-0.01630296469182467,-0.052199451397677704,0
8,0.000320000000000098,5.000707572102282,-0.0166317545134594,-0.05256455671761895,0
9,0.00035999999999991594,5.000378781950543,-0.0166317545134594,-0.0526007160445448,0
10,0.00039999999999995595,5.000378781950543,-0.01696054433496612,-0.05296550875197714,0
11,0.00043999999999999595,5.000049991798719,-0.017946913798717698,-0.05398772439226825,0
12,0.00048000000000003595,5.000378781950543,-0.017289334156344746,-0.05336583394990025,0
13,0.000520000000000076,5.000378781950543,-0.017289334156344746,-0.05340136590746329,0
14,0.0005599999999998939,5.000049991798719,-0.01630296469182467,-0.052450370893401876,0
15,0.0005999999999999339,5.000378781950543,-0.017618123977595282,-0.05380074685911283,0
16,0.0006399999999999739,5.000707572102282,-0.01630296469182467,-0.05252064622060256,0
17,0.0006800000000000139,5.000049991798719,-0.017618123977595282,-0.053870705860047836,0
18,0.0007200000000000539,4.99972120164681,-0.018275703619711994,-0.05456302730260751,0
19,0.0007600000000000939,5.000378781950543,-0.017618123977595282,-0.05394003064931932,0
20,0.0007999999999999119,5.000049991798719,-0.01926207308192608,-0.0556184036737485,0
21,0.0008399999999999519,4.99972120164681,-0.01926207308192608,-0.05565266826927168,0
22,0.0008799999999999919,4.99972120164681,-0.018933283261316228,-0.05535798346503907,0
23,0.0009200000000000319,5.000707572102282,-0.019590862902407788,-0.056049508290069106,0
24,0.0009600000000000719,5.000378781950543,-0.01860449344057817,-0.055096923927727914,0
25,0.001000000000000112,5.000049991798719,-0.019590862902407788,-0.05611691815386968,0
26,0.0010399999999999299,5.000378781950543,-0.01926207308192608,-0.0558215925130863,0
27,0.0010799999999999699,5.000707572102282,-0.017946913798717698,-0.054539736576817134,0
28,0.0011200000000000099,5.000378781950543,-0.017618123977595282,-0.054244089023025424,0
29,0.0011600000000000499,5.000707572102282,-0.018275703619711994,-0.0549346496073144,0
30,0.0012000000000000899,5.000378781950543,-0.01696054433496612,-0.053652309695335465,0
31,0.0012399999999999078,5.000049991798719,-0.01630296469182467,-0.05302738761261531,0
32,0.0012799999999999478,5.000707572102282,-0.01597417487006185,-0.05273109329729791,0
33,0.0013199999999999878,5.000049991798719,-0.01564538504817102,-0.05243463668756004,0
34,0.0013600000000000279,5.000707572102282,-0.01597417487006185,-0.05279559718831208,0
35,0.0014000000000000679,5.000049991798719,-0.015316595226152155,-0.05217002545229332,0
36,0.0014400000000001079,5.000378781950543,-0.014987805404005308,-0.05187308053071285,0
37,0.0014799999999999258,5.000378781950543,-0.014330225759327644,-0.05124718254425055,0
38,0.0015199999999999658,5.000049991798719,-0.012686276645394332,-0.049634751612486504,0
39,0.0015600000000000058,5.000378781950543,-0.012028696998925656,-0.049008526439780674,0
40,0.0016000000000000458,5.000378781950543,-0.0116999071754995,-0.04871092715068882,0
41,0.0016400000000000858,4.99972120164681,-0.011042327528263687,-0.04808437386867834,0
42,0.0016799999999999038,5.000378781950543,-0.010713537704454032,-0.04778644601264973,0
43,0.0017199999999999438,4.99972120164681,-0.0090695885834889,-0.04617319423503454,0
44,0.0017599999999999838,5.000378781950543,-0.00939837840793746,-0.046532516552766946,0
45,0.0018000000000000238,5.000049991798719,-0.0090695885834889,-0.04623409414725635,0
46,0.0018400000000000638,4.99972120164681,-0.00808321910937683,-0.045277926794815175,0
47,0.0018800000000001038,4.99972120164681,-0.008412008934208556,-0.045636753222491534,0
48,0.0019199999999999218,5.000049991798719,-0.00808321910937683,-0.04533783426148433,0
49,0.0019599999999999618,4.99972120164681,-0.008412008934208556,-0.04569632899229524,0
50,0.0020000000000000018,5.000378781950543,-0.008412008934208556,-0.0457258677229759,0
51,0.0020400000000000418,5.000049991798719,-0.0090695885834889,-0.04641281971156053,0
52,0.002080000000000082,5.000049991798719,-0.0090695885834889,-0.04644202544478929,0
53,0.0021199999999998997,5.000049991798719,-0.009727168232258263,-0.04712864400739469,0
54,0.0021599999999999397,4.999392411494816,-0.010384747880516562,-0.047815095538164265,0
55,0.0021999999999999797,4.999063621342738,-0.0113711173519455,-0.04883016965023604,0
56,0.0022400000000000198,5.000049991798719,-0.011042327528263687,-0.04852991701617659,0
57,0.0022800000000000598,4.99972120164681,-0.011042327528263687,-0.048558286547021295,0
58,0.0023200000000000998,5.000707572102282,-0.012357486822223915,-0.04990164750668948,0
59,0.0023599999999999177,5.000049991798719,-0.012686276645394332,-0.050258470925473274,0
60,0.0023999999999999577,5.000049991798719,-0.012357486822223915,-0.04995754642426829,0
61,0.0024399999999999977,5.000378781950543,-0.014330225759327644,-0.051957982207543885,0
62,0.0024800000000000377,5.000378781950543,-0.014659015581730453,-0.05231430019959024,0
63,0.0025200000000000777,5.000049991798719,-0.014987805404005308,-0.052670449315659555,0
64,0.0025599999999998957,5.000378781950543,-0.015316595226152155,-0.05302642935784811,0
65,0.0025999999999999357,5.000049991798719,-0.01564538504817102,-0.05338224012967249,0
66,0.0026399999999999757,5.000378781950543,-0.01630296469182467,-0.05406667125783534,0
67,0.0026800000000000157,5.000378781950543,-0.01630296469182467,-0.05409335308341451,0
68,0.0027200000000000557,5.000049991798719,-0.01630296469182467,-0.05411986505785937,0
69,0.0027600000000000957,5.000049991798719,-0.017618123977595282,-0.05546136627616888,0
70,0.0027999999999999137,4.99972120164681,-0.01630296469182467,-0.05417237869169516,0
71,0.0028399999999999537,4.99972120164681,-0.017618123977595282,-0.05551353925962324,0
72,0.0028799999999999937,5.000378781950543,-0.018933283261316228,-0.056854529219906476,0
73,0.0029200000000000337,5.000378781950543,-0.017946913798717698,-0.05589381964326399,0
74,0.0029600000000000737,5.000049991798719,-0.018275703619711994,-0.056248098376044595,0
75,0.0029999999999998916,4.99972120164681,-0.017946913798717698,-0.055944626310554,0
76,0.0030399999999999316,4.999392411494816,-0.01860449344057817,-0.05662735237097625,0
77,0.0030799999999999716,5.000049991798719,-0.018933283261316228,-0.05698111709413135,0
78,0.0031200000000000117,5.000049991798719,-0.018933283261316228,-0.05700592030266043,0
79,0.0031600000000000517,4.99972120164681,-0.018275703619711994,-0.0563729719994166,0
80,0.0032000000000000917,5.000049991798719,-0.017946913798717698,-0.05606864147179873,0
81,0.0032399999999999096,5.000378781950543,-0.017946913798717698,-0.056092928546844244,0
82,0.0032799999999999496,5.000049991798719,-0.017946913798717698,-0.05611704323168307,0
83,0.0033199999999999896,5.000378781950543,-0.017618123977595282,-0.055812195534791005,0
84,0.0033600000000000296,5.000049991798719,-0.017289334156344746,-0.05550717510823743,0
85,0.0034000000000000696,5.000378781950543,-0.017946913798717698,-0.05618835124832861,0
86,0.0034400000000001096,5.000049991798719,-0.0166317545134594,-0.054896615397846765,0
87,0.0034799999999999276,5.000378781950543,-0.01630296469182467,-0.054591075783568754,0
88,0.0035199999999999676,4.99972120164681,-0.0166317545134594,-0.05494294242215049,0
89,0.0035600000000000076,4.99972120164681,-0.0166317545134594,-0.054965845687188625,0
90,0.0036000000000000476,5.000049991798719,-0.01597417487006185,-0.05433099559691475,0
91,0.0036400000000000876,5.000378781950543,-0.01630296469182467,-0.05468234110137751,0
92,0.0036799999999999056,5.000049991798719,-0.01564538504817102,-0.05404714311298985,0
93,0.0037199999999999456,5.000378781950543,-0.01630296469182467,-0.05472693022896698,0
94,0.0037599999999999856,4.998406041038327,-0.015316595226152155,-0.05376259389867127,0
95,0.0038000000000000256,4.998734831190575,-0.01696054433496612,-0.05542840165341823,0
96,0.0038400000000000656,5.001365152405508,-0.017618123977595282,-0.056107665301549176,0
97,0.0038800000000001056,4.998734831190575,-0.01564538504817102,-0.05415643558772042,0
98,0.0039199999999999235,5.000378781950543,-0.018275703619711994,-0.0568080884369905,0
99,0.0039599999999999635,5.000707572102282,-0.018275703619711994,-0.056829247630410654,0
100,0.0040000000000000036,4.999392411494816,-0.018275703619711994,-0.0568502315945995,0
101,0.0040400000000000436,5.002351522859708,-0.0166317545134594,-0.055227091079904936,0
102,0.0040800000000000836,5.002680313010939,-0.017618123977595282,-0.056234093621094,0
103,0.0041199999999999015,5.001693942556992,-0.019590862902407788,-0.05822728996810889,0
104,0.0041599999999999415,4.999392411494816,-0.021892391642189743,-0.06054910033642714,0
105,0.0041999999999999815,4.999063621342738,-0.02090602218305261,-0.05958283657487813,0
106,0.0042400000000000215,4.999063621342738,-0.020577232363083744,-0.05927397638580286,0
107,0.0042800000000000615,5.000378781950543,-0.022221181461645576,-0.06093767891435559,0
108,0.0043200000000001015,5.000049991798719,-0.022221181461645576,-0.06095725601077625,0
109,0.0043599999999999195,4.99972120164681,-0.02320755091924319,-0.06196302610009966,0
110,0.0043999999999999595,4.99972120164681,-0.023536340738185738,-0.06231103995649385,0
111,0.0044399999999999995,4.99972120164681,-0.0228787611001723,-0.061672507633626424,0
112,0.0044800000000000395,5.000378781950543,-0.023536340738185738,-0.06234895773799898,0
113,0.0045200000000000795,5.000049991798719,-0.023536340738185738,-0.06236765123064252,0
114,0.0045599999999998975,5.000049991798719,-0.024193920375685754,-0.06304374726369678,0
115,0.0045999999999999375,4.99972120164681,-0.024522710194243194,-0.0633908762589027,0
116,0.0046399999999999775,5.000378781950543,-0.024851500012672237,-0.06373782791481764,0
117,0.0046800000000000175,5.000049991798719,-0.025180289830972882,-0.06408460211274666,0
118,0.0047200000000000575,4.99972120164681,-0.025837869467188898,-0.06475998855360299,0
119,0.0047600000000000975,5.000378781950543,-0.023536340738185738,-0.06247608893868817,0
120,0.0047999999999999154,5.000378781950543,-0.024851500012672237,-0.06380869952271606,0
121,0.0048399999999999554,5.000378781950543,-0.024193920375685754,-0.06316839327830016,0
122,0.0048799999999999955,5.000049991798719,-0.024193920375685754,-0.0631854886430495,0
123,0.0049200000000000355,5.000707572102282,-0.023865130556999917,-0.06287361605201701,0
124,0.0049600000000000755,5.000049991798719,-0.02320755091924319,-0.06223277539712074,0
125,0.004999999999999893,4.99972120164681,-0.022221181461645576,-0.0612629665714739,0
126,0.005039999999999933,5.000049991798719,-0.0228787611001723,-0.061936928386507197,0
127,0.005079999999999973,5.000049991798719,-0.020577232363083744,-0.059651603267531064,0
128,0.005120000000000013,5.000049991798719,-0.020577232363083744,-0.059667628225886,0
129,0.005160000000000053,5.000378781950543,-0.01991965272276132,-0.0590258947843865,0
130,0.0052000000000000934,5.000049991798719,-0.01991965272276132,-0.05904156212549381,0
131,0.005239999999999911,5.000049991798719,-0.018933283261316228,-0.058070681050849754,0
132,0.005279999999999951,5.000049991798719,-0.018275703619711994,-0.057428410746744624,0
133,0.005319999999999991,5.000049991798719,-0.017946913798717698,-0.05711475112054893,0
134,0.005360000000000031,5.000049991798719,-0.017946913798717698,-0.057129702080847784,0
135,0.005400000000000071,4.99972120164681,-0.017289334156344746,-0.05648689407407598,0
136,0.005440000000000111,5.000378781950543,-0.017289334156344746,-0.05650148629638477,0
137,0.005479999999999929,5.000378781950543,-0.017946913798717698,-0.057173478660784816,0
138,0.005519999999999969,5.000378781950543,-0.018275703619711994,-0.05751650161814245,0
139,0.005560000000000009,4.999392411494816,-0.018933283261316228,-0.058188134726673474,0
140,0.005600000000000049,5.000378781950543,-0.018933283261316228,-0.058202008442002094,0
141,0.005640000000000089,5.000049991798719,-0.019590862902407788,-0.0588732819662755,0
142,0.005679999999999907,5.000049991798719,-0.01926207308192608,-0.05855800611789509,0
143,0.005719999999999947,4.99972120164681,-0.01991965272276132,-0.05922891974243411,0
144,0.005759999999999987,5.000049991798719,-0.02090602218305261,-0.060228443122333275,0
145,0.005800000000000027,4.999392411494816,-0.020248442542986647,-0.05958383726370141,0
146,0.005840000000000067,4.99972120164681,-0.022221181461645576,-0.0615693697531651,0
147,0.005880000000000107,5.000378781950543,-0.02320755091924319,-0.06256835250010663,0
148,0.005919999999999925,5.000707572102282,-0.022549971280973066,-0.061923205800513866,0
149,0.005959999999999965,5.000049991798719,-0.02320755091924319,-0.06259303795921668,0
150,0.006000000000000005,5.000378781950543,-0.02320755091924319,-0.06260510999545596,0
151,0.006040000000000045,5.000049991798719,-0.024193920375685754,-0.0636033709396268,0
152,0.006080000000000085,4.99972120164681,-0.023865130556999917,-0.06328629199747356,0
153,0.006119999999999903,4.999392411494816,-0.024851500012672237,-0.06428419165743267,0
154,0.006159999999999943,5.000049991798719,-0.023865130556999917,-0.06330917167438754,0
155,0.006199999999999983,5.000049991798719,-0.024851500012672237,-0.06430670981325164,0
156,0.006240000000000023,4.99972120164681,-0.024851500012672237,-0.06431769765087175,0
157,0.006280000000000063,5.000378781950543,-0.025837869467188898,-0.06531487404294183,0
158,0.006320000000000103,5.000049991798719,-0.025837869467188898,-0.06532550002757627,0
159,0.006359999999999921,5.000378781950543,-0.026495449102891075,-0.06599352464378606,0
160,0.006399999999999961,4.99972120164681,-0.025509079649145103,-0.06501741911685908,0
161,0.006440000000000001,5.000049991798719,-0.02715302873807933,-0.06667145103100933,0
162,0.006480000000000041,5.000707572102282,-0.026166659285104213,-0.06569498325538178,0
163,0.006520000000000081,5.000378781950543,-0.026824238920549456,-0.06636228337569108,0
164,0.006559999999999899,5.000378781950543,-0.026166659285104213,-0.06571424298966312,0
165,0.006599999999999939,5.000378781950543,-0.026495449102891075,-0.0660523907801104,0
166,0.006639999999999979,5.000049991798719,-0.02715302873807933,-0.06671914707154672,0
167,0.006680000000000019,5.000378781950543,-0.026495449102891075,-0.0660705627381948,0
168,0.006720000000000059,5.000049991798719,-0.026824238920549456,-0.066408166466936,0
169,0.006760000000000099,5.000049991798719,-0.026824238920549456,-0.0664167989525824,0
170,0.006799999999999917,5.000049991798719,-0.026166659285104213,-0.06576767034432461,0
171,0.006839999999999957,5.000049991798719,-0.026166659285104213,-0.06577593988169222,0
172,0.006879999999999997,5.000049991798719,-0.026824238920549456,-0.06644160753498722,0
173,0.006920000000000037,5.000049991798719,-0.025509079649145103,-0.06513435473388089,0
174,0.006960000000000077,4.999063621342738,-0.026824238920549456,-0.06645723890166301,0
175,0.006999999999999895,5.000378781950543,-0.025837869467188898,-0.06547841274605795,0
176,0.007039999999999935,5.000049991798719,-0.02715302873807933,-0.06680093369304743,0
177,0.007079999999999975,5.000707572102282,-0.026166659285104213,-0.06582174427314957,0
178,0.007120000000000015,5.000049991798719,-0.026824238920549456,-0.06648632227895501,0
179,0.007160000000000055,5.000707572102282,-0.02715302873807933,-0.06682192878610399,0
180,0.007200000000000095,5.000049991798719,-0.028139398189897927,-0.06781493323044889,0
181,0.007239999999999913,5.000049991798719,-0.028468188006913683,-0.06815017632821994,0
182,0.007279999999999953,5.000378781950543,-0.028796977823800904,-0.06848523770108787,0
183,0.007319999999999993,5.000049991798719,-0.028796977823800904,-0.06849132752096615,0
184,0.007360000000000033,4.99972120164681,-0.029783347273691016,-0.06948360504498113,0
185,0.007400000000000073,5.000049991798719,-0.028796977823800904,-0.06850296191548932,0
186,0.007440000000000113,5.000378781950543,-0.029125767640559533,-0.0688372962926253,0
187,0.007479999999999931,4.999392411494816,-0.029454557457189598,-0.06917144890499716,0
188,0.007519999999999971,4.99972120164681,-0.029454557457189598,-0.06917662993316949,0
189,0.007560000000000011,5.000378781950543,-0.029125767640559533,-0.06885283937589001,0
190,0.007600000000000051,5.001036362253937,-0.029125767640559533,-0.06885765686684912,0
191,0.007640000000000091,5.000049991798719,-0.028796977823800904,-0.06853350277477173,0
192,0.007679999999999909,5.001036362253937,-0.029454557457189598,-0.06919553637036159,0
193,0.007719999999999949,5.000049991798719,-0.028468188006913683,-0.06821343912528961,0
194,0.007759999999999989,5.000049991798719,-0.028139398189897927,-0.06788873976364947,0
195,0.007800000000000029,5.000049991798719,-0.028796977823800904,-0.06855022811195545,0
196,0.00784000000000007,4.99972120164681,-0.029125767640559533,-0.06888274491268781,0
197,0.00788000000000011,5.000378781950543,-0.027481818555480722,-0.06724234109338526,0
198,0.007919999999999927,4.99972120164681,-0.027481818555480722,-0.0672457046548849,0
199,0.007959999999999967,5.000049991798719,-0.028139398189897927,-0.06790646616213593,0
200,0.008000000000000007,5.000378781950543,-0.027481818555480722,-0.06725188672918815,0
201,0.008040000000000047,5.000378781950543,-0.028139398189897927,-0.06791228491270303,0
202,0.008080000000000087,5.000049991798719,-0.028468188006913683,-0.06824371164712915,0
203,0.008119999999999905,5.000049991798719,-0.028139398189897927,-0.06791737713821336,0
204,0.008159999999999945,4.99972120164681,-0.029454557457189598,-0.06923481012836447,0
205,0.008199999999999985,5.000378781950543,-0.029454557457189598,-0.06923690229174691,0
206,0.008240000000000025,5.000049991798719,-0.030112137090063842,-0.06989639255598439,0
207,0.008280000000000065,5.000378781950543,-0.030112137090063842,-0.06989812168448094,0
208,0.008320000000000105,5.000049991798719,-0.03142729635426868,-0.07121482860516341,0
209,0.008359999999999923,5.000378781950543,-0.031098506538410467,-0.07088740500630747,0
210,0.008399999999999963,5.000378781950543,-0.031756086169998185,-0.07154616944966184,0
211,0.008440000000000003,5.000049991798719,-0.031756086169998185,-0.07154717289212939,0
212,0.008480000000000043,5.000378781950543,-0.03208487598559902,-0.07187678481853235,0
213,0.008520000000000083,4.99972120164681,-0.03274245561641449,-0.0725350052678157,0
214,0.008559999999999901,4.99972120164681,-0.03274245561641449,-0.0725354648349783,0
215,0.008599999999999941,4.99972120164681,-0.03340003524671499,-0.07319332282386333,0
216,0.008639999999999981,5.000378781950543,-0.03340003524671499,-0.07319342001829543,0
217,0.008680000000000021,4.99972120164681,-0.03438640469119987,-0.07417970553918443,0
218,0.008720000000000061,5.000049991798719,-0.03340003524671499,-0.07319307110089929,0
219,0.008760000000000101,4.99972120164681,-0.03438640469119987,-0.0741789945309024,0
220,0.008799999999999919,5.000049991798719,-0.03438640469119987,-0.0741783675469616,0
221,0.008839999999999959,4.99972120164681,-0.03471519450577058,-0.07450634946105468,0
222,0.008879999999999999,5.000049991798719,-0.03471519450577058,-0.07450536069866248,0
223,0.008920000000000039,5.000049991798719,-0.035372774134525484,-0.07516177075943306,0
224,0.008960000000000079,5.000378781950543,-0.035043984320212454,-0.07483163062956645,0
225,0.008999999999999897,5.000378781950543,-0.03471519450577058,-0.07450130981172513,0
226,0.009039999999999937,5.000378781950543,-0.035372774134525484,-0.07515717781065878,0
227,0.009079999999999977,5.000378781950543,-0.03471519450577058,-0.07449770598878563,0
228,0.009120000000000017,5.000049991798719,-0.03668793339048888,-0.07646837218191425,0
229,0.009160000000000057,5.000049991798719,-0.03603035376276496,-0.0758085394306556,0
230,0.009200000000000097,5.000049991798719,-0.03635914357669136,-0.07613489575732953,0
231,0.009239999999999915,4.999392411494816,-0.03603035376276496,-0.0758034921623613,0
232,0.009279999999999955,5.000378781950543,-0.037016723204157484,-0.07678706760055207,0
233,0.009319999999999995,5.000707572102282,-0.03668793339048888,-0.07645530363485217,0
234,0.009360000000000035,5.000049991798719,-0.03800309264438971,-0.07776730866292353,0
235,0.009400000000000075,5.000049991798719,-0.03800309264438971,-0.07776397444002817,0
236,0.009439999999999893,5.000378781950543,-0.0383318824575425,-0.07808925011165278,0
237,0.009479999999999933,4.99972120164681,-0.0383318824575425,-0.07808555613162559,0
238,0.009519999999999973,5.000049991798719,-0.03767430283110791,-0.07742410276849918,0
239,0.009560000000000013,5.000707572102282,-0.0383318824575425,-0.07807762898511218,0
240,0.009600000000000053,5.000378781950543,-0.0383318824575425,-0.07807339598739596,0
241,0.009640000000000093,4.99972120164681,-0.03800309264438971,-0.07774019367556743,0
242,0.009679999999999911,5.000378781950543,-0.03800309264438971,-0.07773560176456702,0
243,0.009719999999999951,5.000049991798719,-0.03800309264438971,-0.07773083053157621,0
244,0.009759999999999991,5.000378781950543,-0.0383318824575425,-0.07805466988178124,0
245,0.009800000000000031,4.99972120164681,-0.03800309264438971,-0.07772075046945592,0
246,0.009840000000000071,5.000378781950543,-0.03734551301769716,-0.07705786220279665,0
247,0.009880000000000111,5.000049991798719,-0.03734551301769716,-0.07705237461916413,0
248,0.009919999999999929,5.000049991798719,-0.037016723204157484,-0.07671791837715199,0
249,0.009959999999999969,5.000049991798719,-0.035701563948709644,-0.07539691394891453,0
250,0.010000000000000009,5.000378781950543,-0.035043984320212454,-0.07473331050552989,0
251,0.010040000000000049,5.000049991798719,-0.03438640469119987,-0.0740695285234474,0
252,0.010080000000000089,5.000049991798719,-0.03340003524671499,-0.073076778293321,0
253,0.010119999999999907,5.000378781950543,-0.033071245431629134,-0.07274142936732768,0
254,0.010159999999999947,5.000378781950543,-0.03241366580107112,-0.07207711240959612,0
255,0.010199999999999987,4.99972120164681,-0.031756086169998185,-0.07141261734577707,0
256,0.010240000000000027,5.000707572102282,-0.03142729635426868,-0.07107673410411548,0
257,0.010280000000000067,5.000378781950543,-0.03142729635426868,-0.07106946279907642,0
258,0.010320000000000107,4.99972120164681,-0.030769716722423582,-0.07040443409885605,0
259,0.010359999999999925,4.999392411494816,-0.03142729635426868,-0.07105438701645163,0
260,0.010399999999999965,5.000049991798719,-0.03142729635426868,-0.07104658277548027,0
261,0.010440000000000005,4.999392411494816,-0.03274245561641449,-0.07235376039077507,0
262,0.010480000000000045,5.000378781950543,-0.03241366580107112,-0.07201681164523212,0
263,0.010520000000000085,5.000049991798719,-0.03274245561641449,-0.07233726537124666,0
264,0.010559999999999903,5.000049991798719,-0.03340003524671499,-0.07298633187899571,0
265,0.010599999999999943,5.000378781950543,-0.035043984320212454,-0.07462159092431231,0
266,0.010639999999999983,4.999392411494816,-0.035043984320212454,-0.07461272411978095,0
267,0.010680000000000023,5.000049991798719,-0.035372774134525484,-0.07493247048417592,0
268,0.010720000000000063,5.000378781950543,-0.03603035376276496,-0.07558083014975833,0
269,0.010760000000000103,5.000378781950543,-0.037016723204157484,-0.07655780325008553,0
270,0.01079999999999992,5.000049991798719,-0.03635914357669136,-0.07589065103915868,0
271,0.01083999999999996,5.000378781950543,-0.03800309264438971,-0.07752485141869483,0
272,0.01088,5.000049991798719,-0.03800309264438971,-0.07751492676520505,0
273,0.01092000000000004,4.99972120164681,-0.0383318824575425,-0.0778336161005932,0
274,0.01096000000000008,5.000378781950543,-0.03866067227056637,-0.07815212975430813,0
275,0.010999999999999899,4.99972120164681,-0.037016723204157484,-0.0764977289914533,0
276,0.011039999999999939,5.000049991798719,-0.03800309264438971,-0.07747347134418542,0
277,0.011079999999999979,5.000049991798719,-0.037016723204157484,-0.07647629957315621,0
278,0.011120000000000019,5.000049991798719,-0.035701563948709644,-0.07515016289304496,0
279,0.011160000000000059,5.000049991798719,-0.037016723204157484,-0.07645416978106542,0
280,0.011200000000000099,5.000049991798719,-0.035372774134525484,-0.07479889355401548,0
281,0.011239999999999917,5.000378781950543,-0.035043984320212454,-0.07445860194673705,0
282,0.011279999999999957,4.99972120164681,-0.03668793339048888,-0.07609087474461208,0
283,0.011319999999999997,5.000049991798719,-0.0340576148765004,-0.0734487056365647,0
284,0.011360000000000037,5.000049991798719,-0.03438640469119987,-0.07376547069499208,0
285,0.011400000000000077,5.000049991798719,-0.03340003524671499,-0.07276690249313064,0
286,0.011439999999999895,4.99972120164681,-0.03208487598559902,-0.07143937063630557,0
287,0.011479999999999935,4.99972120164681,-0.029783347273691016,-0.06912529565478964,0
288,0.011519999999999975,5.000378781950543,-0.029454557457189598,-0.0687837860608756,0
289,0.011560000000000015,4.99972120164681,-0.02781060837275358,-0.06712694385897525,0
290,0.011600000000000055,4.999392411494816,-0.02781060837275358,-0.06711387757086969,0
291,0.011640000000000095,5.000049991798719,-0.025837869467188898,-0.06512789937762459,0
292,0.011679999999999913,5.000707572102282,-0.026824238920549456,-0.06610085671645063,0
293,0.011719999999999953,5.000378781950543,-0.026495449102891075,-0.06575848213177724,0
294,0.011759999999999993,5.000049991798719,-0.026495449102891075,-0.0657447248883065,0
295,0.011800000000000033,4.99972120164681,-0.026495449102891075,-0.06573079534605439,0
296,0.011840000000000073,5.000378781950543,-0.025837869467188898,-0.065059114048641,0
297,0.011880000000000113,5.000049991798719,-0.024193920375685754,-0.06340089135693613,0
298,0.01191999999999993,5.000049991798719,-0.022549971280973066,-0.06174249690614449,0
299,0.01195999999999997,4.99972120164681,-0.023536340738185738,-0.06271424943565716,0
300,0.01200000000000001,5.000707572102282,-0.02090602218305261,-0.06006914256710054,0
301,0.01204000000000005,4.99972120164681,-0.022549971280973066,-0.06169813215341106,0
302,0.01208000000000009,4.998734831190575,-0.021892391642189743,-0.06102542199400607,0
303,0.012119999999999909,5.000049991798719,-0.021234812002893247,-0.0603525410158868,0
304,0.012159999999999949,5.002022732708393,-0.022221181461645576,-0.061323438510059995,0
305,0.012199999999999989,5.001036362253937,-0.018933283261316228,-0.05801989791347212,0
306,0.012240000000000029,5.002351522859708,-0.023865130556999917,-0.06293593257692516,0
307,0.012280000000000069,5.000707572102282,-0.018275703619711994,-0.05733052296877015,0
308,0.012320000000000109,4.99972120164681,-0.018275703619711994,-0.05731437045822875,0
309,0.012359999999999927,4.997419670581074,-0.017289334156344746,-0.05631167884523245,0
310,0.012399999999999967,4.99972120164681,-0.018275703619711994,-0.05728155672209233,0
311,0.012440000000000007,5.000378781950543,-0.017946913798717698,-0.0569361060815423,0
312,0.012480000000000047,4.998406041038327,-0.01860449344057817,-0.057576855876247154,0
313,0.012520000000000087,5.000378781950543,-0.01696054433496612,-0.0559159081029446,0
314,0.012559999999999905,5.000378781950543,-0.019590862902407788,-0.05852905939084034,0
315,0.012599999999999945,4.99972120164681,-0.01630296469182467,-0.05522382549914777,0
316,0.012639999999999985,5.000049991798719,-0.01860449344057817,-0.057507850377130285,0
317,0.012680000000000025,5.000049991798719,-0.018275703619711994,-0.0571613887093415,0
318,0.012720000000000065,5.000378781950543,-0.017946913798717698,-0.05681475928038852,0
319,0.012760000000000105,5.000707572102282,-0.0166317545134594,-0.05548159284285434,0
320,0.012799999999999923,4.99972120164681,-0.018275703619711994,-0.057107367470833795,0
321,0.012839999999999963,5.000049991798719,-0.01597417487006185,-0.054787497136831884,0
322,0.012880000000000003,5.000707572102282,-0.0166317545134594,-0.05542656831131414,0
323,0.012920000000000043,5.000049991798719,-0.01696054433496612,-0.055736683002451354,0
324,0.012960000000000083,5.000049991798719,-0.017289334156344746,-0.056046631256707585,0
325,0.0129999999999999,4.99972120164681,-0.017289334156344746,-0.056027623479123115,0
326,0.01303999999999994,4.99972120164681,-0.017618123977595282,-0.056337239540205045,0
327,0.01307999999999998,4.99972120164681,-0.017618123977595282,-0.056317900026914794,0
328,0.01312000000000002,5.000378781950543,-0.017618123977595282,-0.05629839499154752,0
329,0.01316000000000006,4.999392411494816,-0.01564538504817102,-0.05430598573730329,0
330,0.0132000000000001,5.000049991798719,-0.014330225759327644,-0.05297099106838876,0
331,0.013239999999999919,5.000049991798719,-0.014659015581730453,-0.05327978069124533,0
332,0.013279999999999959,4.99972120164681,-0.014659015581730453,-0.05325961590957208,0
333,0.013319999999999999,5.000378781950543,-0.01301506646843685,-0.05159533767139572,0
334,0.013360000000000039,5.000049991798719,-0.012686276645394332,-0.051246054620745246,0
335,0.013400000000000079,5.000049991798719,-0.013343856291351444,-0.051882977178417514,0
336,0.013439999999999896,5.000049991798719,-0.0116999071754995,-0.0502182073572135,0
337,0.013479999999999936,5.000049991798719,-0.010713537704454032,-0.04921085380891689,0
338,0.013519999999999976,4.99972120164681,-0.010384747880516562,-0.04886091678255312,0
339,0.013560000000000016,4.99972120164681,-0.009727168232258263,-0.04818202705497024,0
340,0.013600000000000056,5.000707572102282,-0.009727168232258263,-0.04816055434857444,0
341,0.013640000000000096,5.000378781950543,-0.0090695885834889,-0.047481339617712504,0
342,0.013679999999999914,5.000049991798719,-0.010384747880516562,-0.048774701709869785,0
343,0.013719999999999954,5.000378781950543,-0.00939837840793746,-0.04776637316410308,0
344,0.013759999999999994,5.000049991798719,-0.009727168232258263,-0.04807304230291832,0
345,0.013800000000000034,5.000378781950543,-0.009727168232258263,-0.04805076026262986,0
346,0.013840000000000074,5.000378781950543,-0.010055958056451306,-0.04835710695081949,0
347,0.013879999999999892,5.000049991798719,-0.0113711173519455,-0.04964966227519313,0
348,0.013919999999999932,5.000707572102282,-0.010384747880516562,-0.048640528259651164,0
349,0.013959999999999972,5.000049991798719,-0.0116999071754995,-0.04993276270117719,0
350,0.014000000000000012,5.000049991798719,-0.0116999071754995,-0.049909677803545834,0
351,0.014040000000000052,5.000049991798719,-0.0116999071754995,-0.04988643312842716,0
352,0.014080000000000092,5.000049991798719,-0.012357486822223915,-0.05052060859074733,0
353,0.01411999999999991,5.001036362253937,-0.010384747880516562,-0.04852430622506344,0
354,0.01415999999999995,5.000049991798719,-0.006439269983302923,-0.044555105935522726,0
355,0.01419999999999999,4.999392411494816,-0.0028225818947114484,-0.040914536758980574,0
356,0.01424000000000003,5.000049991798719,0.0004653163810297567,-0.037602598973894036,0
357,0.01428000000000007,5.000049991798719,0.003753214669504526,-0.03429050303040703,0
358,0.01432000000000011,5.000378781950543,0.009671431620803153,-0.028347930555652587,0
359,0.014359999999999928,5.000049991798719,0.015260858779241576,-0.0227339902840304,0
360,0.014399999999999968,4.99972120164681,0.02315181482994949,-0.01481836381061543,0
361,0.014440000000000008,5.000378781950543,0.033673089677423634,-0.004272261512601266,0
362,0.014480000000000048,4.99972120164681,0.043865574808886185,0.005945207814061687,0
363,0.014520000000000088,5.000378781950543,0.056688378855200935,0.018793152515585845,0
364,0.014559999999999906,5.000378781950543,0.07181271207711976,0.0339427825665963,0
365,0.014599999999999946,5.000378781950543,0.08825220500793643,0.05040772821278827,0
366,0.014639999999999986,5.000049991798719,0.10502048811571825,0.06720161963316187,0
367,0.014680000000000026,5.000049991798719,0.12310393104113287,0.08531082617785268,0
368,0.014720000000000066,5.000707572102282,0.1421737439808442,0.10440655775153118,0
369,0.014760000000000106,5.000049991798719,0.16091476743993832,0.12317365456583235,0
370,0.014799999999999924,5.000378781950543,0.18162853066600876,0.14391364557344413,0
371,0.014839999999999964,5.000378781950543,0.20201350446326316,0.1643250012822179,0
372,0.014880000000000004,5.000049991798719,0.22305605853933289,0.1853940911019812,0
373,0.014920000000000044,5.000378781950543,0.24442740301708538,0.20679212485635406,0
374,0.014960000000000084,4.99972120164681,0.264483588284316,0.22687515263244412,0
375,0.014999999999999902,5.000049991798719,0.28618372365023836,0.24860228343733987,0
376,0.015039999999999942,5.000049991798719,0.3075550695769184,0.2700007774295491,0
377,0.015079999999999982,5.000049991798719,0.32892641598654804,0.2913994242262761,0
378,0.015120000000000022,4.99972120164681,0.34931139300840136,0.3118118536503818,0
379,0.015160000000000062,5.000049991798719,0.3710115303133902,0.3335395950649422,0
380,0.015200000000000102,4.99972120164681,0.39435561795694046,0.35691143821612925,0
381,0.01523999999999992,5.000707572102282,0.4173709161796383,0.37995464303386045,0
382,0.01527999999999996,5.000049991798719,0.44005742495356903,0.4026692091781418,0
383,0.01532,5.000049991798719,0.46537425419606354,0.42801424625281786,0
384,0.01536000000000004,5.000049991798719,0.489704714069379,0.452373064105258,0
385,0.01540000000000008,4.99972120164681,0.5163367045995629,0.47903356244522366,0
386,0.015439999999999898,5.000049991798719,0.5423111157831603,0.5050366309515798,0
387,0.015479999999999938,5.000049991798719,0.5696006877280952,0.5323550094131804,0
388,0.015519999999999978,5.000049991798719,0.5978766304931137,0.5606599075683136,0
389,0.015560000000000018,5.000049991798719,0.6258237839672344,0.5886361649841572,0
390,0.015600000000000058,5.000049991798719,0.6540997282234148,0.6169413614104464,0
391,0.0156400000000001,4.99972120164681,0.6833620434036382,0.646233076664565,0
392,0.015679999999999916,5.000378781950543,0.7109804090077224,0.6738809899203568,0
393,0.015719999999999956,5.000049991798719,0.7399139356140816,0.7028442114288923,0
394,0.015759999999999996,5.000378781950543,0.7668747224390793,0.7298348400778251,0
395,0.015800000000000036,5.000707572102282,0.7921915594285105,0.7551816654828778,0
396,0.015840000000000076,5.000049991798719,0.8155356563660061,0.7785558970962505,0
397,0.015879999999999894,5.000049991798719,0.8365782230203747,0.7996287443539648,0
398,0.015919999999999934,5.000707572102282,0.8530177284810989,0.8160986760113645,0
399,0.015959999999999974,4.99972120164681,0.8668269132443137,0.8299384322290948,0
400,0.016000000000000014,5.000049991798719,0.8766906167444978,0.8398328521047992,0
401,0.016040000000000054,5.000049991798719,0.8803073080482503,0.843480404366901,0
402,0.016080000000000094,5.000378781950543,0.8773481969807327,0.8405522985010478,0
403,0.016119999999999912,5.000049991798719,0.8697860242858261,0.8330212749102732,0
404,0.016159999999999952,5.000378781950543,0.8559768394882847,0.8192433827771519,0
405,0.016199999999999992,5.000378781950543,0.8388797537710903,0.8021777329411589,0
406,0.016240000000000032,4.99972120164681,0.8158644464670683,0.7791940043902882,0
407,0.016280000000000072,5.000378781950543,0.7885748683958415,0.7519361475980099,0
408,0.016320000000000112,5.000049991798719,0.7586549702903725,0.7220481129498186,0
409,0.01635999999999993,4.999392411494816,0.7270911225940043,0.6905162705402795,0
410,0.01639999999999997,5.000049991798719,0.6942121155229268,0.657669410235499,0
411,0.01644000000000001,5.000378781950543,0.6616618994869187,0.6251514820938704,0
412,0.01648000000000005,4.99972120164681,0.6310844247028964,0.5946064359796277,0
413,0.01652000000000009,4.99972120164681,0.6011645308637528,0.5647191112316878,0
414,0.016559999999999908,5.000378781950543,0.574532538155667,0.5381198276809654,0
415,0.016599999999999948,5.000049991798719,0.5488869161863815,0.512507054578653,0
416,0.016639999999999988,4.99972120164681,0.5255428249441295,0.4891959515551514,0
417,0.016680000000000028,5.000049991798719,0.5064730043221342,0.47015925814457404,0
418,0.016720000000000068,5.000049991798719,0.49003350407167656,0.4537530237378192,0
419,0.016760000000000108,4.99972120164681,0.47753948405941393,0.4412924078398939,0
420,0.016799999999999926,5.000049991798719,0.4676757841589331,0.4314622499614722,0
421,0.016839999999999966,5.000049991798719,0.4637303042258134,0.42755044959396316,0
422,0.016880000000000006,4.999392411494816,0.4620863542582553,0.4259403163701433,0
423,0.016920000000000046,5.000049991798719,0.46471667420764057,0.4286045898747215,0
424,0.016960000000000086,5.000707572102282,0.4699773141270709,0.4338993197928813,0
425,0.016999999999999904,5.000378781950543,0.47622432406710596,0.4401805558060232,0
426,0.017039999999999944,4.999392411494816,0.4857592340501259,0.44974982756613213,0
427,0.017079999999999984,4.99972120164681,0.49726688414915865,0.4612919747746087,0
428,0.017120000000000024,4.99972120164681,0.5117336444582629,0.47579336715265536,0
429,0.017160000000000064,5.000049991798719,0.5278443550431529,0.49193884439190566,0
430,0.017200000000000104,5.000378781950543,0.5465853860405132,0.5107147762537432,0
431,0.017239999999999922,5.000049991798719,0.5663127874559434,0.5304772123672512,0
432,0.017279999999999962,4.99972120164681,0.5886705095096281,0.5528701025748867,0
433,0.017320000000000002,5.000378781950543,0.6106994419961532,0.574934336292303,0
434,0.017360000000000042,5.000049991798719,0.6353586953195843,0.5996290235434317,0
435,0.017400000000000082,5.000049991798719,0.6590315790414732,0.6233374735084949,0
436,0.0174399999999999,5.000049991798719,0.683033253341087,0.6473748459842378,0
437,0.01747999999999994,5.000378781950543,0.708678878514408,0.6730563008829347,0
438,0.01751999999999998,5.000049991798719,0.733009343969696,0.6974227272279538,0
439,0.01756000000000002,5.000378781950543,0.7576686000365206,0.7221180749627953,0
440,0.01760000000000006,5.000049991798719,0.7823278566389127,0.7468135536242483,0
441,0.0176400000000001,4.99972120164681,0.8060007434756089,0.7705227925226412,0
442,0.017679999999999918,5.000378781950543,0.8306600011106438,0.7952185318324392,0
443,0.017719999999999958,5.000049991798719,0.852688938369645,0.8172840799885444,0
444,0.017759999999999998,5.000378781950543,0.8724163452177662,0.8370482265642311,0
445,0.017800000000000038,5.000378781950543,0.89115738202478,0.8558261315362461,0
446,0.017840000000000078,4.99972120164681,0.906610517856552,0.8713162635762853,0
447,0.017879999999999896,5.000049991798719,0.918775752585734,0.8835186221616911,0
448,0.017919999999999936,5.000049991798719,0.9296258269057501,0.8944059475894416,0
449,0.017959999999999976,5.000049991798719,0.9368592098389817,0.9016767084843408,0
450,0.018000000000000016,5.000049991798719,0.9408046914568081,0.9056596945190668,0
451,0.018040000000000056,4.99972120164681,0.9434350125423558,0.9083276460769253,0
452,0.018080000000000096,5.000049991798719,0.94244864213462,0.9073790317959777,0
453,0.018119999999999914,5.000378781950543,0.9437638026784425,0.9087320737190252,1
454,0.018159999999999954,4.99972120164681,0.9427774322704446,0.9077837095395471,0
455,0.018199999999999994,5.000049991798719,0.9427774322704446,0.9078218402131223,0
456,0.018240000000000034,4.99972120164681,0.94244864213462,0.9075313047905974,0
457,0.018280000000000074,5.000049991798719,0.9421198519988828,0.9072408930014676,0
458,0.018320000000000114,5.000049991798719,0.9421198519988828,0.9072793945738828,0
459,0.018359999999999932,4.99972120164681,0.9408046914568081,0.9060028584214521,0
460,0.018399999999999972,5.000049991798719,0.9394895309161323,0.9047264446779951,0
461,0.018440000000000012,5.000049991798719,0.9342288887674381,0.8995046713233694,0
462,0.018480000000000052,5.000049991798719,0.925022765061294,0.8903375379963514,0
463,0.018520000000000092,5.000049991798719,0.908583258615198,0.873937143101587,0
464,0.01855999999999991,5.000707572102282,0.8852391598436428,0.8506322766396619,0
465,0.01859999999999995,4.999392411494816,0.8523601482582822,0.817792617707271,0
466,0.01863999999999999,5.000378781950543,0.8122477553604883,0.7777196973897802,0
467,0.01868000000000003,4.999392411494816,0.7635868215724728,0.7290983556923532,0
468,0.01872000000000007,4.99972120164681,0.7063773480258607,0.6719285933285294,0
469,0.01876000000000011,4.99972120164681,0.6432496565026401,0.608840731661179,0
470,0.018799999999999928,5.000707572102282,0.5722310079532472,0.5378620312205917,0
471,0.018839999999999968,5.000049991798719,0.49726688414915865,0.4629379733570742,0
472,0.018880000000000008,5.000049991798719,0.420658815969709,0.386370088527773,0
473,0.018920000000000048,5.000378781950543,0.3410916441570319,0.3068432170516204,0
474,0.018960000000000088,5.000707572102282,0.2628396386559461,0.22863162844922585,0
475,0.018999999999999906,5.000049991798719,0.1862315892253052,0.15206411205423065,0
476,0.019039999999999946,5.001036362253937,0.1158705538265029,0.08174372540181785,0
477,0.019079999999999986,5.000707572102282,0.05175653112254362,0.017670466727787826,0
478,0.019120000000000026,5.000049991798719,-0.0047953208540382625,-0.03884050636351655,0
479,0.019160000000000066,5.000049991798719,-0.05115468506975916,-0.08515887726778604,0
480,0.019200000000000106,5.000049991798719,-0.08962309172105022,-0.12358617661160387,0
481,0.019239999999999924,5.000378781950543,-0.11789901341513638,-0.15182087743332107,0
482,0.019279999999999964,5.000049991798719,-0.13828397961110772,-0.17216450962412178,0
483,0.019320000000000004,5.000049991798719,-0.15242193973679719,-0.1862610230448961,0
484,0.019360000000000044,5.000378781950543,-0.16097047364631673,-0.19476799798377087,0
485,0.019400000000000084,4.99972120164681,-0.1652447405670761,-0.1990005941031221,0
486,0.019439999999999902,4.99972120164681,-0.16688868937670803,-0.2006027607164954,0
487,0.019479999999999942,5.000378781950543,-0.16655989961505047,-0.2002320778005835,0
488,0.019519999999999982,5.000049991798719,-0.16458716104228271,-0.19821733555335774,0
489,0.019560000000000022,5.000049991798719,-0.16228563270127483,-0.1958736934564116,0
490,0.019600000000000062,4.999063621342738,-0.1586689452949745,-0.19221478265234127,0
491,0.019640000000000102,5.000378781950543,-0.15373709880569447,-0.1872406035640286,0
492,0.01967999999999992,5.000049991798719,-0.14781888297880097,-0.181279946378324,0
493,0.01971999999999996,5.000378781950543,-0.13992792847560936,-0.1733464421989359,0
494,0.01976,5.000707572102282,-0.13039302501516953,-0.16376888118821242,0
495,0.01980000000000004,4.99972120164681,-0.11921417253994292,-0.1525472637328129,0
496,0.01984000000000008,4.99972120164681,-0.10737774034052165,-0.14066795956842348,0
497,0.019879999999999898,4.99972120164681,-0.09488372838901253,-0.12813096911313615,0
498,0.019919999999999938,4.99972120164681,-0.08238971624778989,-0.11559387237619623,0
499,0.019959999999999978,4.99972120164681,-0.06989570391761903,-0.10305666980612022,0
500,0.020000000000000018,5.000378781950543,-0.05674411178783788,-0.08986178224087227,0
501,0.020040000000000058,5.000049991798719,-0.04392130926139491,-0.07699557953289637,0
502,0.020080000000000098,4.99972120164681,-0.029783347273691016,-0.06281411306795226,0
503,0.020119999999999916,5.000049991798719,-0.017618123977595282,-0.05060528145012527,0
504,0.020159999999999956,4.99972120164681,-0.004466531027802631,-0.0374099767861788,0
505,0.020199999999999996,5.000707572102282,0.008027482463535476,-0.02487214864117937,0
506,0.020240000000000036,4.998734831190575,0.02019270630239349,-0.012663007662908177,0
507,0.020280000000000076,5.000378781950543,0.03334429983648583,0.0005326050417585604,0
508,0.020319999999999894,5.000049991798719,0.04748226311035131,0.014714689061940012,0
509,0.020359999999999934,5.000049991798719,0.05603079915588792,0.023307446973291124,0
510,0.020399999999999974,5.000049991798719,0.06655207440480995,0.033873044750465875,0
511,0.020440000000000014,4.998406041038327,0.0737854512124434,0.0411508442909177,0
512,0.020480000000000054,5.002022732708393,0.08101882808020172,0.04842874363738092,0
513,0.020520000000000094,4.99972120164681,0.09351284281114798,0.06096738013343844,0
514,0.02055999999999991,4.998406041038327,0.0971295313191825,0.06462878923271409,0
515,0.02059999999999995,5.001036362253937,0.11159628550024885,0.07914036237008415,0
516,0.02063999999999999,4.999063621342738,0.11882966267987906,0.08641865640922847,0
517,0.02068000000000003,4.99972120164681,0.12967972856027796,0.09731373658972081,0
518,0.02072000000000007,4.999063621342738,0.1392146350495857,0.10689375435629789,0
519,0.02076000000000011,5.001365152405508,0.14809196187283277,0.11581628896981983,0
520,0.02079999999999993,4.999063621342738,0.16124355732868845,0.1290131882640244,0
521,0.02083999999999997,5.001036362253937,0.17110725404716948,0.13892228440324075,0
522,0.02088000000000001,4.999392411494816,0.1812997407698131,0.14916026566256835,0
523,0.02092000000000005,4.999392411494816,0.1924785973075063,0.16038471138571198,0
524,0.02096000000000009,5.000378781950543,0.20365745398298266,0.17160925142748418,0
525,0.020999999999999908,5.000049991798719,0.2141787309793924,0.1821763055023816,0
526,0.021039999999999948,4.99972120164681,0.22404242827352536,0.19208587311781344,0
527,0.021079999999999988,5.000378781950543,0.23390612567372374,0.20199553361201983,0
528,0.021120000000000028,5.000378781950543,0.2414682937521372,0.20960375708633233,0
529,0.021160000000000068,5.000378781950543,0.2503456215753992,0.21852723213585634,0
530,0.021200000000000108,5.000378781950543,0.2585653696357846,0.22679321878063385,0
531,0.021239999999999926,5.000378781950543,0.2667851177689112,0.23505929638335113,0
532,0.021279999999999966,5.000378781950543,0.27500486597456103,0.2433254644701661,0
533,0.021320000000000006,5.000378781950543,0.2828958243200124,0.2512629326340466,0
534,0.021360000000000046,4.99972120164681,0.29177315253805675,0.26018686013279324,0
535,0.021400000000000086,5.000378781950543,0.30032169090132177,0.26878208676336823,0
536,0.021439999999999904,5.000378781950543,0.3091990192836388,0.27770619192326873,0
537,0.021479999999999944,4.99972120164681,0.31873392763888103,0.2872879650893716,0
538,0.021519999999999984,4.99972120164681,0.3282688360898571,0.29686982590683353,0
539,0.021560000000000024,4.99972120164681,0.3381325345877989,0.30678056384858515,0
540,0.021600000000000064,5.000049991798719,0.3486538130977006,0.3173489684006765,0
541,0.021640000000000104,5.000049991798719,0.35818872184687417,0.3269310893108388,0
542,0.02167999999999992,5.000707572102282,0.37068274035058607,0.33947240561412795,0
543,0.02171999999999996,5.000378781950543,0.3812040192156102,0.35004106743648283,0
544,0.02176,4.99972120164681,0.39205408816440523,0.3609386040189091,0
545,0.02180000000000004,5.000378781950543,0.4038905271551365,0.3728225948375066,0
546,0.02184000000000008,5.000049991798719,0.41605575626667934,0.3850354594884794,0
547,0.0218799999999999,5.000049991798719,0.4275634055644863,0.3965908275540086,0
548,0.02191999999999994,5.000378781950543,0.440386214939615,0.4094614384412871,0
549,0.02195999999999998,4.99972120164681,0.45189386451958785,0.42101697179338504,0
550,0.02200000000000002,4.99972120164681,0.4643878842135905,0.43355895703445557,0
551,0.02204000000000006,5.000049991798719,0.47655311406502227,0.44577223372229136,0
552,0.0220800000000001,5.000049991798719,0.48806076405949034,0.4573280113563262,0
553,0.022119999999999918,4.999392411494816,0.501212364213108,0.47052781946593847,0
554,0.022159999999999958,5.000378781950543,0.514035174526327,0.4833989175642886,0
555,0.022199999999999998,5.000049991798719,0.5258716149579606,0.49528372512234853,0
556,0.022240000000000038,4.99972120164681,0.5390232155971949,0.5084837717409175,0
557,0.022280000000000078,4.99972120164681,0.5508596563154704,0.5203687368025113,0
558,0.022319999999999895,5.000049991798719,0.5640112572715843,0.5335689399764691,0
559,0.022359999999999935,5.000049991798719,0.577491648423335,0.547098010730604,0
560,0.022399999999999975,5.000049991798719,0.5896568796111676,0.5593119984148545,0
561,0.022440000000000015,5.000378781950543,0.6028084810528926,0.5725124327560086,0
562,0.022480000000000055,5.000049991798719,0.6143161324480212,0.584068992962047,0
563,0.022520000000000095,5.000378781950543,0.6238510436980111,0.593652888442394,0
564,0.022559999999999913,4.99972120164681,0.6340435351280255,0.6038944390296834,0
565,0.022599999999999953,5.000049991798719,0.6412769162014651,0.6111769536942968,0
566,0.022639999999999993,5.000378781950543,0.6481815072713316,0.6181307522957329,0
567,0.022680000000000033,5.000049991798719,0.6534421481160325,0.6234406741184191,0
568,0.022720000000000073,5.000378781950543,0.6577164188211356,0.6277642987534727,0
569,0.022760000000000113,5.000378781950543,0.6596891591522386,0.6297864654715762,0
570,0.02279999999999993,5.000049991798719,0.6590315790414732,0.6291783837094894,0
571,0.02283999999999997,5.000049991798719,0.6557436784936131,0.6259400529761627,0
572,0.02288000000000001,5.000378781950543,0.6511406177433341,0.6213866330100032,0
573,0.02292000000000005,5.000049991798719,0.6435784465531863,0.6138741730768513,0
574,0.02296000000000009,5.000049991798719,0.634701115223604,0.6050466229799972,0
575,0.02299999999999991,5.000707572102282,0.6235222536534937,0.5939176121207741,0
576,0.02303999999999995,5.000378781950543,0.6100418619153137,0.5804871400736435,0
577,0.02307999999999999,5.000049991798719,0.5945887301326738,0.5650839964638016,0
578,0.02312000000000003,5.000378781950543,0.5771628583931825,0.5477081808800336,0
579,0.02316000000000007,5.000049991798719,0.5564490867015414,0.5270445328278137,0
580,0.02320000000000011,4.99972120164681,0.536392895455945,0.5070385322057122,0
581,0.023239999999999927,4.99972120164681,0.5137063845162867,0.4844022783736066,0
582,0.023279999999999967,5.000049991798719,0.49003350407167656,0.46077972102020653,0
583,0.023320000000000007,5.000378781950543,0.46537425419606354,0.4361708597186824,0
584,0.023360000000000047,5.000049991798719,0.4393998449818032,0.4102469040602389,0
585,0.023400000000000087,5.000378781950543,0.4134254364460282,0.38432301356049264,0
586,0.023439999999999905,5.000378781950543,0.38613586872281014,0.3570840278516393,0
587,0.023479999999999945,5.000049991798719,0.3604902515590956,0.3314890561783962,0
588,0.023519999999999985,5.000049991798719,0.3328718953762155,0.30392140845951743,0
589,0.023560000000000025,5.000378781950543,0.3068974896950304,0.27799777371294465,0
590,0.023600000000000065,4.99972120164681,0.28125187465922435,0.2524029915791072,0
591,0.023640000000000105,5.000049991798719,0.25560626032565464,0.22680827161127792,0
592,0.023679999999999923,5.000049991798719,0.23094701644254975,0.20219998305377762,0
593,0.023719999999999963,4.99972120164681,0.20727414293680996,0.17857812532928147,0
594,0.023760000000000003,5.000378781950543,0.18524521953205508,0.15660027765687307,0
595,0.023800000000000043,5.000049991798719,0.16321629666371967,0.1346224899671462,0
596,0.023840000000000083,5.000707572102282,0.14283132374468102,0.11428871116783934,0
597,0.0238799999999999,5.000049991798719,0.1234327209159308,0.09494136089451372,0
598,0.02391999999999994,5.000049991798719,0.10567806785196096,0.07723801831594468,0
599,0.02395999999999998,5.000378781950543,0.08923857459362991,0.0608498929669945,0
600,0.02400000000000002,5.000049991798719,0.0731278715001718,0.044790614700627174,0
601,0.02404000000000006,5.000049991798719,0.05866111795613836,0.03037534239485762,0
602,0.0240800000000001,5.000707572102282,0.045838313880531376,0.017604075461890023,0
603,0.02411999999999992,5.000378781950543,0.033015509995673945,0.004832864116995572,0
604,0.02415999999999996,5.000049991798719,0.021836655483104705,-0.00629434296558834,0
605,0.0242,5.000378781950543,0.011972960446309217,-0.016106336189920523,0
606,0.02424000000000004,5.000049991798719,0.0007941062093044515,-0.027233434739764972,0
607,0.02428000000000008,5.000707572102282,-0.007754429284417372,-0.03573016117964095,0
608,0.024319999999999897,5.000378781950543,-0.015316595226152155,-0.04324046520907987,0
609,0.024359999999999937,5.000378781950543,-0.02320755091924319,-0.051079506639877925,0
610,0.024399999999999977,5.000049991798719,-0.030112137090063842,-0.05793212670707215,0
611,0.024440000000000017,5.000378781950543,-0.03668793339048888,-0.06445590557140685,0
612,0.024480000000000057,5.000378781950543,-0.04194857039370768,-0.0696644743151405,0
613,0.024520000000000097,5.000049991798719,-0.046880417554202566,-0.07454420290201769,0
614,0.024559999999999915,5.000378781950543,-0.05279863410837703,-0.08041025107788946,0
615,0.024599999999999955,5.000378781950543,-0.05575774236972354,-0.08331714166587606,0
616,0.024639999999999995,5.000707572102282,-0.059703220035172325,-0.08721035287270873,0
617,0.024680000000000035,5.000378781950543,-0.0629911180754263,-0.0904459361790576,0
618,0.024720000000000075,5.000049991798719,-0.06364869768191721,-0.09105115328648339,0
619,0.024759999999999893,5.000049991798719,-0.06693659570656622,-0.0942866415571908,0
620,0.024799999999999933,5.000378781950543,-0.06759417530993413,-0.09489176466217308,0
621,0.024839999999999973,5.000049991798719,-0.06890933451510713,-0.09615442113509054,0
622,0.024880000000000013,5.000049991798719,-0.06858054471400928,-0.09577308287857644,0
623,0.024920000000000053,5.000378781950543,-0.06989570391761903,-0.09703564841444645,0
624,0.024960000000000093,5.000049991798719,-0.06989570391761903,-0.09698301004534254,0
625,0.02499999999999991,5.000049991798719,-0.07186844271912378,-0.0989030662874546,0
626,0.02503999999999995,5.000049991798719,-0.07022449371819571,-0.09720639104803108,0
627,0.02507999999999999,4.999063621342738,-0.07022449371819571,-0.0971536216417227,0
628,0.02512000000000003,5.000049991798719,-0.06890933451510713,-0.09578565037589998,0
629,0.02516000000000007,5.000707572102282,-0.06825175491278114,-0.0950752165658928,0
630,0.02520000000000011,5.000378781950543,-0.06890933451510713,-0.09567990032715323,0
631,0.02523999999999993,5.000049991798719,-0.06759417530993413,-0.09431180415917101,0
632,0.02527999999999997,5.000049991798719,-0.06660780590468694,-0.09327245718108379,0
633,0.02532000000000001,5.000707572102282,-0.06759417530993413,-0.09420580891523955,0
634,0.02536000000000005,5.000378781950543,-0.06627901610267752,-0.09283759245047973,0
635,0.02540000000000009,5.000378781950543,-0.06529264669586828,-0.09179812671164939,0
636,0.025439999999999907,5.000378781950543,-0.06397748748496758,-0.09042983260615123,0
637,0.025479999999999947,5.000049991798719,-0.06430627728788789,-0.09070544946388115,0
638,0.025519999999999987,5.000049991798719,-0.06397748748496758,-0.09032344917719592,0
639,0.025560000000000027,4.999392411494816,-0.06331990787873677,-0.08961262206067316,0
640,0.025600000000000067,5.000378781950543,-0.06233353846841526,-0.08857296862560304,0
641,0.025640000000000107,4.99972120164681,-0.06233353846841526,-0.0885196485984836,0
642,0.025679999999999925,5.000378781950543,-0.06134716905692379,-0.08747992366959789,0
643,0.025719999999999965,5.000049991798719,-0.06134716905692379,-0.08742653317402821,0
644,0.025760000000000005,5.000378781950543,-0.06101837925283336,-0.08704431840828886,0
645,0.025800000000000045,5.000049991798719,-0.059703220035172325,-0.08567570027498655,0
646,0.025840000000000085,4.99972120164681,-0.059703220035172325,-0.08562220791742431,0
647,0.025879999999999903,5.000049991798719,-0.06003200983978245,-0.08589747243460066,0
648,0.025919999999999943,5.000049991798719,-0.06036079964426265,-0.08617270453379533,0
649,0.025959999999999983,5.000378781950543,-0.06167595886088427,-0.08743427413926363,0
650,0.026000000000000023,5.000378781950543,-0.06233353846841526,-0.08803823274171485,0
651,0.026040000000000063,5.000707572102282,-0.06233353846841526,-0.08798458085460098,0
652,0.026080000000000103,5.000378781950543,-0.06364869768191721,-0.08924605781079192,0
653,0.02611999999999992,5.000049991798719,-0.06430627728788789,-0.08984992530102992,0
654,0.02615999999999996,4.99972120164681,-0.06397748748496758,-0.08946739403566295,0
655,0.0262,5.000049991798719,-0.06529264669586828,-0.09072878294903669,0
656,0.02624000000000004,5.000707572102282,-0.06529264669586828,-0.0906749843279821,0
657,0.02628000000000008,4.99972120164681,-0.06627901610267752,-0.09160752730167415,0
658,0.0263199999999999,5.000049991798719,-0.06693659570656622,-0.09221125317175383,0
659,0.02635999999999994,5.000378781950543,-0.06759417530993413,-0.09281495225189107,0
660,0.02639999999999998,5.000049991798719,-0.06923812431607472,-0.09440499445654255,0
661,0.02644000000000002,5.000049991798719,-0.06923812431607472,-0.09435106188784437,0
662,0.02648000000000006,5.000378781950543,-0.06923812431607472,-0.09429710406286573,0
663,0.0265200000000001,5.000378781950543,-0.06989570391761903,-0.09490070109395266,0
664,0.026559999999999917,4.99972120164681,-0.07121086311914367,-0.09616185349020878,0
665,0.026599999999999957,4.99972120164681,-0.07285481211811588,-0.09775177195962848,0
666,0.026639999999999997,5.000049991798719,-0.07285481211811588,-0.09769771821617212,0
667,0.026680000000000037,4.99972120164681,-0.07416997131494572,-0.09895880096586929,0
668,0.026720000000000077,5.000049991798719,-0.07581392030804664,-0.10054865131822971,0
669,0.026759999999999895,5.000049991798719,-0.07778665909545869,-0.10246726978119686,0
670,0.026799999999999935,5.000378781950543,-0.07877302848740105,-0.10339949767472167,0
671,0.026839999999999975,4.999392411494816,-0.07975939787816717,-0.10433170490265187,0
672,0.026880000000000015,5.000378781950543,-0.08140334686016236,-0.10592147156676157,0
673,0.026920000000000055,4.99972120164681,-0.08304729583888733,-0.10751121858172857,0
674,0.026960000000000095,5.000049991798719,-0.08304729583888733,-0.10745699748107684,0
675,0.026999999999999913,5.000378781950543,-0.0820609264520449,-0.10641638836546302,0
676,0.027039999999999953,5.000378781950543,-0.0840336652245519,-0.10833486928964164,0
677,0.027079999999999993,4.999392411494816,-0.08600640399234578,-0.11025333259789455,0
678,0.027120000000000033,5.000378781950543,-0.08600640399234578,-0.11019904003526088,0
679,0.027160000000000073,4.999392411494816,-0.08929430192818714,-0.11343262881326405,0
680,0.027200000000000113,4.999392411494816,-0.09192462026741856,-0.11600862190710315,0
681,0.02723999999999993,4.99972120164681,-0.09258219985091413,-0.11661186066505802,0
682,0.02727999999999997,5.000378781950543,-0.09488372838901253,-0.11885903330462194,0
683,0.02732000000000001,4.99972120164681,-0.09488372838901253,-0.1188046628399907,0
684,0.02736000000000005,4.99972120164681,-0.0971852569206733,-0.12105180684755623,0
685,0.02740000000000009,4.999392411494816,-0.10080194460026483,-0.12461409644995086,0
686,0.02743999999999991,5.000378781950543,-0.10178831396466272,-0.12554605469013558,0
687,0.02747999999999995,5.000378781950543,-0.10408984247698179,-0.1277931595370269,0
688,0.02751999999999999,5.000378781950543,-0.10573379141039972,-0.12938267276931437,0
689,0.02756000000000003,5.000049991798719,-0.10737774034052165,-0.13097217446781872,0
690,0.02760000000000007,5.000378781950543,-0.10967926883715166,-0.1332192447072571,0
691,0.02764000000000011,4.99972120164681,-0.1106656381908704,-0.13415114528281485,0
692,0.027679999999999927,5.000049991798719,-0.11296716667825839,-0.13639819497536232,0
693,0.027719999999999967,5.000049991798719,-0.11461111559385707,-0.1379876555834092,0
694,0.027760000000000007,5.000378781950543,-0.11592627472395621,-0.13924831739688587,0
695,0.027800000000000047,5.000049991798719,-0.11789901341513638,-0.14116655026568015,0
696,0.027840000000000087,5.000378781950543,-0.11954296232081356,-0.14275598534617512,0
697,0.027879999999999905,5.001036362253937,-0.12118691122318002,-0.14434541292318392,0
698,0.027919999999999945,5.000707572102282,-0.12283086012223408,-0.14593483349897263,0
699,0.027959999999999985,5.000049991798719,-0.12480359879672413,-0.14785303735419886,0
700,0.028000000000000025,5.000049991798719,-0.12578996813217858,-0.1487848658759347,0
701,0.028040000000000065,5.000378781950543,-0.126118757910398,-0.14905910934715283,0
702,0.028080000000000105,4.99972120164681,-0.1277627067995044,-0.1506485069367695,0
703,0.028119999999999923,5.000049991798719,-0.12940665568529136,-0.15223790003098947,0
704,0.028159999999999963,5.000049991798719,-0.13039302501516953,-0.15316970957724518,0
705,0.028200000000000003,4.99972120164681,-0.1330233432223299,-0.1557454645083549,0
706,0.028240000000000043,4.99972120164681,-0.1349960818721146,-0.15766363688888735,0
707,0.028280000000000083,4.99972120164681,-0.13664003074327558,-0.15925301699641414,0
708,0.0283199999999999,5.000378781950543,-0.13828397961110772,-0.16084239510463694,0
709,0.02835999999999994,5.000378781950543,-0.13992792847560936,-0.16243177171154155,0
710,0.02839999999999998,5.000378781950543,-0.14124308756481152,-0.1636923575427211,0
711,0.02844000000000002,5.000378781950543,-0.14387340573681423,-0.16626810195340597,0
712,0.02848000000000006,4.99972120164681,-0.14485977504911357,-0.1671998974977849,0
713,0.0285200000000001,5.000378781950543,-0.1468325136701073,-0.16911806284050412,0
714,0.02855999999999992,5.000378781950543,-0.1481476727480983,-0.17037864962566407,0
715,0.02859999999999996,5.000378781950543,-0.15077799089766464,-0.17295439696318377,0
716,0.02864,5.000378781950543,-0.15143557043371902,-0.17355740766285332,0
717,0.02868000000000004,4.99972120164681,-0.15044920112943688,-0.17251647199225612,0
718,0.02872000000000008,5.000049991798719,-0.15340830903867092,-0.1754210164991768,0
719,0.028759999999999897,5.000707572102282,-0.15143557043371902,-0.17339371794936242,0
720,0.028799999999999937,4.99972120164681,-0.15340830903867092,-0.1753119005598628,0
721,0.028839999999999977,5.000378781950543,-0.15340830903867092,-0.17525734900828693,0
722,0.028880000000000017,5.003009103162085,-0.1543946783393399,-0.17618917169221887,0
723,0.028920000000000057,4.999063621342738,-0.15340830903867092,-0.17514826120110633,0
724,0.028960000000000097,4.998734831190575,-0.15538104763880373,-0.1770664645280295,0
725,0.028999999999999915,5.002022732708393,-0.15603862717110994,-0.1776695151947803,0
726,0.029039999999999955,5.001036362253937,-0.15373709880569447,-0.17531346486135746,0
727,0.029079999999999995,4.997419670581074,-0.15538104763880373,-0.1769028991133682,0
728,0.029120000000000035,5.001036362253937,-0.15373709880569447,-0.17520444357489096,0
729,0.029160000000000075,5.001693942556992,-0.1543946783393399,-0.1758075247671757,0
730,0.029200000000000115,5.001036362253937,-0.1557098374050238,-0.17706819434323084,0
731,0.029239999999999933,5.000378781950543,-0.15340830903867092,-0.17471218582614773,0
732,0.029279999999999973,5.000049991798719,-0.1550522578724497,-0.17630166433469782,0
733,0.029320000000000013,4.99972120164681,-0.15603862717110994,-0.17723357361966455,0
734,0.029360000000000053,5.000049991798719,-0.15636741693706202,-0.17750791416891618,0
735,0.029400000000000093,4.99972120164681,-0.15801136576481256,-0.17909742506183585,0
736,0.02943999999999991,5.000049991798719,-0.15899773505985432,-0.18002936818820522,0
737,0.02947999999999995,5.000049991798719,-0.15932652482460002,-0.18030374403413235,0
738,0.02951999999999999,5.000378781950543,-0.1606416838822417,-0.1815645019059051,0
739,0.02956000000000003,4.99972120164681,-0.16129926341025752,-0.1821676934634914,0
740,0.02960000000000007,4.999392411494816,-0.16261442246467878,-0.18342847824480085,0
741,0.02964000000000011,5.000049991798719,-0.16327200199108388,-0.18403169767667177,0
742,0.02967999999999993,5.000049991798719,-0.16327200199108388,-0.18397735224135064,0
743,0.02971999999999997,5.000049991798719,-0.16458716104228271,-0.18523818099644568,0
744,0.02976000000000001,4.99972120164681,-0.16623110985325845,-0.18682781512990163,0
745,0.02980000000000005,5.000378781950543,-0.16655989961505047,-0.1871023063114806,0
746,0.02984000000000009,5.000049991798719,-0.16655989961505047,-0.18704802430664721,0
747,0.029879999999999907,4.99972120164681,-0.16655989961505047,-0.1869937593546102,0
748,0.029919999999999947,4.999392411494816,-0.16623110985325845,-0.18661072217033245,0
749,0.029959999999999987,5.000378781950543,-0.16787505866087404,-0.18820044156110038,0
750,0.030000000000000027,5.000378781950543,-0.16688868937670803,-0.18715986134113774,0
751,0.030040000000000067,5.000049991798719,-0.169190217704546,-0.1894071976889633,0
752,0.030080000000000107,5.000049991798719,-0.16787505866087404,-0.18803786609511056,0
753,0.030119999999999925,4.99972120164681,-0.16984779722557486,-0.1899564520128177,0
754,0.030159999999999965,5.000707572102282,-0.1695190074651277,-0.18957352998122162,0
755,0.030200000000000005,5.000707572102282,-0.1695190074651277,-0.1895194185578712,0
756,0.030240000000000045,5.001036362253937,-0.17050537674606547,-0.19045169773450082,0
757,0.030280000000000085,5.000707572102282,-0.17116295626601774,-0.19105520893971542,0
758,0.030319999999999903,4.999392411494816,-0.17116295626601774,-0.19100116288435465,0
759,0.030359999999999943,5.000378781950543,-0.17149174602579192,-0.19127592931722392,0
760,0.030399999999999983,5.000378781950543,-0.1728069050635423,-0.1925370882248707,0
761,0.030440000000000023,5.000049991798719,-0.17313569482264318,-0.1928119015182757,0
762,0.030480000000000063,5.000378781950543,-0.1744508538576997,-0.19407310821890528,0
763,0.030520000000000103,5.000049991798719,-0.17477964361612697,-0.1943479702402849,0
764,0.03055999999999992,5.000049991798719,-0.17477964361612697,-0.19429406756597015,0
765,0.03059999999999996,4.99972120164681,-0.1744508538576997,-0.19391140066055176,0
766,0.03064,5.000049991798719,-0.17477964361612697,-0.1941863392631336,0
767,0.03068000000000004,4.99972120164681,-0.17576601289060007,-0.19511888383595477,0
768,0.03072000000000008,5.000378781950543,-0.17642359240624145,-0.19572266556640536,0
769,0.0307599999999999,5.000049991798719,-0.17740996167869222,-0.19665526443160816,0
770,0.03079999999999994,5.000049991798719,-0.17773875143590606,-0.19693031162020652,0
771,0.03083999999999998,5.000378781950543,-0.17642359240624145,-0.1955614383204505,0
772,0.03088000000000002,5.000049991798719,-0.17576601289060007,-0.1948501732923295,0
773,0.03092000000000006,5.000049991798719,-0.178067541192985,-0.19709804529812483,0
774,0.0309600000000001,5.000049991798719,-0.17773875143590606,-0.1967156289178092,0
775,0.030999999999999917,5.000049991798719,-0.17740996167869222,-0.19633324266735347,0
776,0.031039999999999957,4.99972120164681,-0.17740996167869222,-0.19627967675992164,0
777,0.031079999999999997,5.000049991798719,-0.17642359240624145,-0.19523977262083203,0
778,0.031120000000000037,4.999392411494816,-0.17708117192134348,-0.19584384876423294,0
779,0.031160000000000077,5.000378781950543,-0.17708117192134348,-0.1957903773407702,0
780,0.031199999999999894,5.000378781950543,-0.1760948026484882,-0.1947505690451412,0
781,0.031239999999999934,5.000049991798719,-0.17510843337441945,-0.19371079360058271,0
782,0.031279999999999974,5.000378781950543,-0.17477964361612697,-0.19332863097481795,0
783,0.031320000000000014,4.99972120164681,-0.1744508538576997,-0.19294650210180253,0
784,0.031360000000000054,5.000707572102282,-0.17412206409913766,-0.19256440743053083,0
785,0.031400000000000095,4.99972120164681,-0.17247811530430668,-0.19086718837298533,0
786,0.03143999999999991,5.000378781950543,-0.1734644845816094,-0.19180032248480178,0
787,0.03147999999999995,4.99972120164681,-0.17247811530430668,-0.19076075358558453,0
788,0.03151999999999999,5.000049991798719,-0.1718205357854315,-0.19005001043381484,0
789,0.03156000000000003,5.000378781950543,-0.17116295626601774,-0.18933930371507418,0
790,0.03160000000000007,5.000049991798719,-0.16984779722557486,-0.18797105435251327,0
791,0.03164000000000011,5.000378781950543,-0.16984779722557486,-0.18791800135033376,0
792,0.03167999999999993,4.99972120164681,-0.17083416650610883,-0.18885135539043935,0
793,0.03171999999999997,4.99972120164681,-0.1695190074651277,-0.18748321931167128,0
794,0.03176000000000001,5.000049991798719,-0.1695190074651277,-0.18743028091648795,0
795,0.03180000000000005,5.000378781950543,-0.1695190074651277,-0.18737738160293688,0
796,0.03184000000000009,5.000378781950543,-0.169190217704546,-0.18699573204852593,0
797,0.03187999999999991,5.000378781950543,-0.16853263818297903,-0.18628533268999678,0
798,0.03191999999999995,4.99972120164681,-0.16754626889961982,-0.18524618396273773,0
799,0.03195999999999999,4.99972120164681,-0.16754626889961982,-0.18519344534714005,0
800,0.03200000000000003,5.000378781950543,-0.16754626889961982,-0.18514074799412383,0
801,0.03204000000000007,5.000707572102282,-0.16754626889961982,-0.18508809233700263,0
802,0.03208000000000011,5.000049991798719,-0.16688868937670803,-0.1843778992852071,0
803,0.032119999999999926,4.99972120164681,-0.16754626889961982,-0.18498290783883797,0
804,0.032159999999999966,4.999063621342738,-0.16655989961505047,-0.18394401057497342,0
805,0.032200000000000006,5.000049991798719,-0.16655989961505047,-0.18389152601505948,0
806,0.032240000000000046,5.000378781950543,-0.16688868937670803,-0.18416787506458712,0
807,0.032280000000000086,5.000049991798719,-0.16721747913823115,-0.1844442683891688,0
808,0.032319999999999904,5.000049991798719,-0.16721747913823115,-0.18439191665381696,0
809,0.032359999999999944,4.99972120164681,-0.16688868937670803,-0.1840108202839238,0
810,0.032399999999999984,4.99972120164681,-0.16590232009133205,-0.18297218994153777,0
811,0.032440000000000024,5.000049991798719,-0.16721747913823115,-0.18423513390614601,0
812,0.032480000000000064,5.000049991798719,-0.16655989961505047,-0.18352538569772858,0
813,0.032520000000000104,5.000049991798719,-0.16590232009133205,-0.1828156843071335,0
814,0.03255999999999992,5.000378781950543,-0.1655735303292713,-0.1824348199168284,0
815,0.03259999999999996,5.000378781950543,-0.1652447405670761,-0.18205400318425477,0
816,0.03264,5.000049991798719,-0.16491595080474653,-0.1816732345276023,0
817,0.03268000000000004,5.000049991798719,-0.16458716104228271,-0.1812925143640117,0
818,0.03272000000000008,5.000049991798719,-0.16458716104228271,-0.18124063287216713,0
819,0.0327599999999999,5.000049991798719,-0.1652447405670761,-0.18184638022942512,0
820,0.03279999999999994,4.99972120164681,-0.16392958151695192,-0.18047943875003736,0
821,0.03283999999999998,5.000378781950543,-0.16491595080474653,-0.18141407575973353,0
822,0.03288000000000002,5.000049991798719,-0.1652447405670761,-0.18169118380694874,0
823,0.03292000000000006,5.000049991798719,-0.16623110985325845,-0.18262592235174013,0
824,0.0329600000000001,5.000049991798719,-0.16623110985325845,-0.18257434299372763,0
825,0.03299999999999992,5.000378781950543,-0.16590232009133205,-0.18219402566573267,0
826,0.03303999999999996,4.99972120164681,-0.1652447405670761,-0.1814849707748233,0
827,0.03308,5.000378781950543,-0.16721747913823115,-0.18340628658511215,0
828,0.03312000000000004,5.000049991798719,-0.16688868937670803,-0.18302612707377844,0
829,0.03316000000000008,4.999392411494816,-0.16623110985325845,-0.18231723121573365,0
830,0.033199999999999896,5.000707572102282,-0.16787505866087404,-0.1839099175070159,0
831,0.033239999999999936,5.000378781950543,-0.16754626889961982,-0.18352991944961872,0
832,0.033279999999999976,5.000707572102282,-0.16820384842199382,-0.18413634529684578,0
833,0.033320000000000016,5.000049991798719,-0.16820384842199382,-0.1840852466423731,0
834,0.033360000000000056,4.999063621342738,-0.16721747913823115,-0.183047834123358,0
835,0.033400000000000096,5.000378781950543,-0.16853263818297903,-0.18431200574948264,0
836,0.033439999999999914,5.000707572102282,-0.16787505866087404,-0.18360349502165046,0
837,0.033479999999999954,5.000378781950543,-0.169190217704546,-0.18486777946761151,0
838,0.033519999999999994,5.000378781950543,-0.16984779722557486,-0.18547454139291455,0
839,0.033560000000000034,5.000049991798719,-0.17050537674606547,-0.18608136071247702,0
840,0.033600000000000074,5.000049991798719,-0.1695190074651277,-0.1850442890170608,0
841,0.033640000000000114,4.99972120164681,-0.17050537674606547,-0.18598001406045628,0
842,0.03367999999999993,5.000378781950543,-0.17017658698588745,-0.1856006386289886,0
843,0.03371999999999997,5.000049991798719,-0.1718205357854315,-0.18719406071163708,0
844,0.03376000000000001,5.000049991798719,-0.1721493255449364,-0.18747238309560252,0
845,0.03380000000000005,5.000049991798719,-0.17412206409913766,-0.18939471400139843,0
846,0.03384000000000009,4.99972120164681,-0.17642359240624145,-0.19164589477182023,0
847,0.03387999999999991,5.000049991798719,-0.16392958151695192,-0.17910159684096816,0
848,0.03391999999999995,5.000707572102282,-0.1599841043536892,-0.17510589351346084,0
849,0.03395999999999999,5.000049991798719,-0.1583401555299606,-0.17341177978380232,0
850,0.03400000000000003,5.000378781950543,-0.1557098374050238,-0.17073135839104073,0
851,0.03404000000000007,5.000049991798719,-0.15242193973679719,-0.1673934194716744,0
852,0.03408000000000011,5.000049991798719,-0.14781888297880097,-0.16274038385658873,0
853,0.03411999999999993,5.000378781950543,-0.14288703642331374,-0.15775862121420817,0
854,0.03415999999999997,4.999063621342738,-0.1392703489302085,-0.15409208077932812,0
855,0.03420000000000001,5.000378781950543,-0.13269455344690018,-0.14746649587305835,0
856,0.03424000000000005,5.000378781950543,-0.12842028635421754,-0.14314250324869057,0
857,0.03428000000000009,5.000707572102282,-0.12447480901797399,-0.13914736464326466,0
858,0.034319999999999906,5.000707572102282,-0.11789901341513638,-0.1325219724037331,0
859,0.034359999999999946,5.000707572102282,-0.11296716667825839,-0.1275405940313898,0
860,0.034399999999999986,5.000378781950543,-0.10573379141039972,-0.12025775249678515,0
861,0.034440000000000026,5.000378781950543,-0.09948678544589158,-0.11396134600048745,0
862,0.034480000000000066,5.000378781950543,-0.09258219985091413,-0.1070074259736564,0
863,0.034520000000000106,5.000378781950543,-0.08337608563423975,-0.09775204378878202,0
864,0.034559999999999924,5.000378781950543,-0.07449876111382696,-0.08882551812627466,0
865,0.034599999999999964,5.000049991798719,-0.06759417530993413,-0.08187179836757469,0
866,0.034640000000000004,4.99972120164681,-0.05674411178783788,-0.07097266843786681,0
867,0.034680000000000044,5.000378781950543,-0.04852436660123595,-0.06270392474947883,0
868,0.034720000000000084,5.000049991798719,-0.03635914357669136,-0.05048977148632153,0
869,0.0347599999999999,5.000049991798719,-0.025180289830972882,-0.039262056121224964,0
870,0.03479999999999994,5.000049991798719,-0.014001435936796827,-0.02803440958167633,0
871,0.03483999999999998,5.000049991798719,-0.001178632758433426,-0.015162883085422602,0
872,0.03488000000000002,5.000378781950543,0.011644170613713423,-0.002291426075046288,0
873,0.03492000000000006,5.000378781950543,0.025782133529704057,0.011895120448636609,0
874,0.0349600000000001,4.999392411494816,0.03959130683582415,0.02575280698234103,0
875,0.03499999999999992,5.000049991798719,0.05372927021222988,0.039939212857962425,0
876,0.03503999999999996,5.000707572102282,0.06786723381990087,0.05412554788953294,0
877,0.03508,5.000049991798719,0.08430672667629135,0.07061334074887676,0
878,0.03512000000000004,5.000049991798719,0.0971295313191825,0.08348437362946642,0
879,0.03516000000000008,5.001365152405508,0.11093870575958677,0.09734170419933064,0
880,0.0351999999999999,4.99972120164681,0.12639182979460575,0.11284291191391627,0
881,0.03523999999999994,5.000378781950543,0.1398722148112378,0.12637130781989925,0
882,0.03527999999999998,4.999392411494816,0.1520374404892899,0.13858447125810064,0
883,0.03532000000000002,5.000049991798719,0.16255871688489407,0.14915361194700594,0
884,0.03536000000000006,4.999392411494816,0.17176483383224878,0.15840751938451036,0
885,0.0354000000000001,5.000378781950543,0.18294369025198784,0.16963409215629105,0
886,0.035439999999999916,5.000049991798719,0.18853311851373566,0.1752711622983658,0
887,0.035479999999999956,4.999392411494816,0.19116343770767452,0.17794904856866334,0
888,0.035519999999999996,5.000707572102282,0.19478012661180016,0.1816132294142826,0
889,0.035560000000000036,5.000049991798719,0.19280738720776225,0.1796879064873369,0
890,0.035600000000000076,4.99972120164681,0.19214980740736953,0.17907766737146247,0
891,0.035639999999999894,4.99972120164681,0.18557400942968563,0.1725491339589174,0
892,0.035679999999999934,5.000378781950543,0.18097095087373707,0.16799326352329236,0
893,0.035719999999999974,4.999063621342738,0.173408783297048,0.16047820729804868,0
894,0.035760000000000014,5.000378781950543,0.16518903600308638,0.1523054942639684,0
895,0.035800000000000054,4.99972120164681,0.15302381014612548,0.14018722525401867,0
896,0.035840000000000094,5.000049991798719,0.14118737433599896,0.12839766855811102,0
897,0.03587999999999991,5.000707572102282,0.12639182979460575,0.11364892507960961,0
898,0.03591999999999995,5.000378781950543,0.11060991588943969,0.09791373386886454,0
899,0.03595999999999999,5.000049991798719,0.09384163267489809,0.08119209466452276,0
900,0.03600000000000003,5.000049991798719,0.07477182078178243,0.06216884778303222,0
901,0.03604000000000007,4.999063621342738,0.05603079915588792,0.04347431185723449,0
902,0.03608000000000011,5.000707572102282,0.037947357621069405,0.025437276399434272,0
903,0.03611999999999993,4.99972120164681,0.01953512663099438,0.007071371553155514,0
904,0.03615999999999997,5.000049991798719,0.0014516858662357995,-0.0109658233097632,0
905,0.03620000000000001,5.000049991798719,-0.01564538504817102,-0.028016728871608748,0
906,0.03624000000000005,5.000378781950543,-0.03241366580107112,-0.044738925127133095,0
907,0.03628000000000009,5.000049991798719,-0.047537997173404054,-0.05981725316176437,0
908,0.03631999999999991,5.000049991798719,-0.06200474866471477,-0.07423808277811514,0
909,0.03635999999999995,5.000378781950543,-0.07548513050968754,-0.08767262451251343,0
910,0.03639999999999999,5.000049991798719,-0.08666398358056253,-0.09880571953741657,0
911,0.03644000000000003,5.000049991798719,-0.0971852569206733,-0.10928131719494627,0
912,0.03648000000000007,4.99972120164681,-0.10408984247698179,-0.1161403097294206,0
913,0.03652000000000011,5.000049991798719,-0.1100080586218566,-0.12201301580912968,0
914,0.036559999999999926,4.99972120164681,-0.11592627472395621,-0.12788580509721606,0
915,0.036599999999999966,5.000378781950543,-0.11987175210155175,-0.13178593920499487,0
916,0.036640000000000006,5.000049991798719,-0.12381722946007585,-0.1356861571295002,0
917,0.036680000000000046,4.99972120164681,-0.12644754768848476,-0.13827130004984434,0
918,0.036720000000000086,5.000378781950543,-0.12743391702194856,-0.1392125784899054,0
919,0.036759999999999904,4.99972120164681,-0.12842028635421754,-0.14015394163069103,0
920,0.036799999999999944,5.000378781950543,-0.12809149657692737,-0.13978023064964093,0
921,0.036839999999999984,5.000049991798719,-0.12644754768848476,-0.13809144582951008,0
922,0.036880000000000024,5.000049991798719,-0.12546117835382642,-0.1370603261181253,0
923,0.036920000000000064,5.000049991798719,-0.12348843968092783,-0.13504292290489178,0
924,0.036960000000000104,5.000049991798719,-0.12414601923909123,-0.13565592403907856,0
925,0.03699999999999992,5.001365152405508,-0.12052933166263081,-0.13199474443350104,0
926,0.03703999999999996,4.99972120164681,-0.11855659297780442,-0.1299776003914503,0
927,0.03708,5.000707572102282,-0.11559748494162976,-0.1269741739455066,0
928,0.03712000000000004,5.000707572102282,-0.11230958711109378,-0.12364204492674684,0
929,0.03716000000000008,4.99972120164681,-0.1100080586218566,-0.12129637274344579,0
930,0.0371999999999999,5.000707572102282,-0.10540500162397977,-0.11664925981680235,0
931,0.03723999999999994,4.99972120164681,-0.10507621183742798,-0.11627650213643928,0
932,0.03727999999999998,4.998406041038327,-0.09850041607873007,-0.10965682678706211,0
933,0.03732000000000002,5.000378781950543,-0.09784283649996468,-0.10895545618744282,0
934,0.03736000000000006,5.001036362253937,-0.09159583047547391,-0.10266474797713128,0
935,0.0374000000000001,4.998406041038327,-0.08995188151378213,-0.10097718592837185,0
936,0.03743999999999992,5.000378781950543,-0.0840336652245519,-0.09501544591305729,0
937,0.03747999999999996,5.000707572102282,-0.07975939787816717,-0.09069774446230992,0
938,0.03752,4.999063621342738,-0.07482755091257769,-0.08572255327332355,0
939,0.03756000000000004,5.001365152405508,-0.06923812431607472,-0.08008987259213765,0
940,0.03760000000000008,5.001693942556992,-0.06003200983978245,-0.07084059442612647,0
941,0.037639999999999896,5.000378781950543,-0.054113793336938706,-0.06487930488327825,0
942,0.037679999999999936,5.000378781950543,-0.04425009907222392,-0.05497262848152218,0
943,0.037719999999999976,5.000049991798719,-0.03866067227056637,-0.049340310697531864,0
944,0.037760000000000016,5.000378781950543,-0.03241366580107112,-0.043050504650652494,0
945,0.037800000000000056,5.000707572102282,-0.026495449102891075,-0.03708958002877022,0
946,0.037840000000000096,4.99972120164681,-0.021234812002893247,-0.0317863269059768,0
947,0.037879999999999914,5.000049991798719,-0.01564538504817102,-0.026154376075079894,0
948,0.037919999999999954,4.99972120164681,-0.013672646114138112,-0.024139205655695523,0
949,0.037959999999999994,4.99972120164681,-0.010384747880516562,-0.020808968570233843,0
950,0.038000000000000034,5.000049991798719,-0.0116999071754995,-0.022081881888060706,0
951,0.038040000000000074,5.000049991798719,-0.01301506646843685,-0.02335488831818172,0
952,0.038080000000000114,5.000707572102282,-0.01630296469182467,-0.026600727031230204,0
953,0.03811999999999993,4.999392411494816,-0.022549971280973066,-0.03280576769913332,0
954,0.03815999999999997,5.000049991798719,-0.031756086169998185,-0.041970010491102716,0
955,0.03820000000000001,5.000707572102282,-0.04063341114600001,-0.05080555742781065,0
956,0.03824000000000005,5.000049991798719,-0.05115468506975916,-0.06128514760208534,0
957,0.03828000000000009,4.99972120164681,-0.06200474866471477,-0.0720936219678874,0
958,0.03831999999999991,5.000049991798719,-0.07121086311914367,-0.08125824194248808,0
959,0.03835999999999995,4.99972120164681,-0.08304729583888733,-0.09305327515919483,0
960,0.03839999999999999,4.99972120164681,-0.09389735901632983,-0.10386203403632809,0
961,0.03844000000000003,5.000378781950543,-0.10606258119668784,-0.11598604734351008,0
962,0.03848000000000007,5.000049991798719,-0.11625506450615032,-0.12613741742980294,0
963,0.03852000000000011,5.000049991798719,-0.12578996813217858,-0.1356313037040077,0
964,0.03855999999999993,5.000378781950543,-0.13828397961110772,-0.14808439392226447,0
965,0.03859999999999997,4.99972120164681,-0.1501204113610753,-0.15988000072097977,0
966,0.03864000000000001,5.000049991798719,-0.16261442246467878,-0.17233328339948306,0
967,0.03868000000000005,5.000707572102282,-0.1734644845816094,-0.18314271383265934,0
968,0.03872000000000009,5.001036362253937,-0.18628728507607667,-0.19592497959837263,0
969,0.038759999999999906,5.000378781950543,-0.20108282385246334,-0.21068008081311965,0
970,0.038799999999999946,5.000378781950543,-0.21653594183621722,-0.2260928586129208,0
971,0.038839999999999986,5.000049991798719,-0.23231784925298088,-0.24183452343244877,0
972,0.038880000000000026,4.999392411494816,-0.2513876536263073,-0.26086418300274283,0
973,0.038920000000000066,5.000049991798719,-0.27111503697215866,-0.2805515195457072,0
974,0.038960000000000106,5.000378781950543,-0.29248636836596326,-0.30188290234116666,0
975,0.038999999999999924,4.99972120164681,-0.3151728579685579,-0.32452954175280896,0
976,0.039039999999999964,5.000378781950543,-0.3404896644150052,-0.34980659661700064,0
977,0.039080000000000004,5.000378781950543,-0.36745041840745435,-0.37672769783564697,0
978,0.039120000000000044,4.99972120164681,-0.39605511976305396,-0.4052928454241042,0
979,0.039160000000000084,4.99972120164681,-0.4253173993310475,-0.43451567042827366,0
980,0.0391999999999999,5.000049991798719,-0.4568812052140814,-0.4660401211459094,0
981,0.03923999999999994,5.000049991798719,-0.4861434823770585,-0.495263142735471,0
982,0.03927999999999998,5.000378781950543,-0.515405758367891,-0.5244862629368758,0
983,0.03932000000000002,5.000378781950543,-0.5436816643823186,-0.5527231131363164,0
984,0.03936000000000006,5.000707572102282,-0.5712999901131733,-0.5803024832155249,0
985,0.0394000000000001,5.000378781950543,-0.596945577334242,-0.6059092151356347,0
986,0.03943999999999992,5.000378781950543,-0.6199608471265624,-0.6288857301634757,0
987,0.03947999999999996,4.99972120164681,-0.6410033788493534,-0.6498896078425049,0
988,0.03952,5.000707572102282,-0.6587580144982128,-0.6676056903510033,0
989,0.03956000000000004,5.000378781950543,-0.6732247543218113,-0.6820339781187685,0
990,0.03960000000000008,5.000378781950543,-0.6847323880569047,-0.6935032610621262,0
991,0.0396399999999999,5.000378781950543,-0.6909793891471868,-0.6997120128027823,0
992,0.03967999999999994,5.000049991798719,-0.6939384949070596,-0.7026329708315935,0
993,0.03971999999999998,4.999063621342738,-0.6916369682060333,-0.7002933981929647,0
994,0.03976000000000002,5.000049991798719,-0.6847323880569047,-0.6933508740730281,0
995,0.03980000000000006,4.999063621342738,-0.6732247543218113,-0.6818053985056963,0
996,0.0398400000000001,4.999392411494816,-0.6581004354081691,-0.666643340068601,0
997,0.039879999999999916,5.000378781950543,-0.6396882206351869,-0.6481934882496063,0
998,0.039919999999999956,5.000707572102282,-0.6166729514879306,-0.6251406847008714,0
999,0.039959999999999996,4.99972120164681,-0.5916849441336379,-0.6001152457551664,0
1000,0.040000000000000036,5.000049991798719,-0.5666969358987544,-0.5750899089029076,0
1001,0.040040000000000076,5.000378781950543,-0.5384210307891856,-0.5467767783124118,0
1002,0.040080000000000116,4.99972120164681,-0.5108027037957372,-0.5191213291353345,0
1003,0.040119999999999933,5.000378781950543,-0.48285558612488166,-0.49113719273743706,0
1004,0.040159999999999973,4.999392411494816,-0.454908467385883,-0.4631531588857113,0
1005,0.040200000000000014,4.99972120164681,-0.42959166478975774,-0.4377995449473408,0
1006,0.040240000000000054,5.000049991798719,-0.4032884923471599,-0.41145966508758486,0
1007,0.040280000000000094,4.999392411494816,-0.3769853189799903,-0.385119888381388,0
1008,0.04031999999999991,5.000049991798719,-0.3516685137475356,-0.35976658403951833,0
1009,0.04035999999999995,4.99972120164681,-0.3247077591960278,-0.3327694347581278,0
1010,0.04039999999999999,5.000707572102282,-0.29873337281586854,-0.30675875817597636,0
1011,0.04044000000000003,4.999392411494816,-0.27341656499667044,-0.2814057648294729,0
1012,0.04048000000000007,5.000049991798719,-0.24744217689741582,-0.25539529602283423,0
1013,0.04052000000000011,5.000049991798719,-0.22344052636985184,-0.23135766975147962,0
1014,0.04055999999999993,4.99972120164681,-0.19845250586784702,-0.20633377861138763,0
1015,0.04059999999999997,5.000049991798719,-0.1734644845816094,-0.18130999193331374,0
1016,0.04064000000000001,4.99972120164681,-0.14979162159258003,-0.157601468937684,0
1017,0.04068000000000005,5.000378781950543,-0.126118757910398,-0.1338930507715599,0
1018,0.04072000000000009,5.000049991798719,-0.10310347311534969,-0.11084231715108761,0
1019,0.04075999999999991,5.000378781950543,-0.08271850604340404,-0.0904220070465343,0
1020,0.04079999999999995,4.999392411494816,-0.060689589448612954,-0.06835785334468886,0
1021,0.04083999999999999,5.000378781950543,-0.04161978058197445,-0.049252913427724754,0
1022,0.04088000000000003,4.99972120164681,-0.02320755091924319,-0.0308056589010115,0
1023,0.04092000000000007,4.999392411494816,-0.006439269983302923,-0.014002459415487334,0
1024,0.04096000000000011,5.000049991798719,0.007369902801517392,-0.00015847452197526035,0
1025,0.040999999999999925,5.000378781950543,0.020521496138282788,0.01302782435765587,0
1026,0.041039999999999965,4.99972120164681,0.030056401434036775,0.022597328507075576,0
1027,0.041080000000000005,4.99972120164681,0.036303408409458296,0.02887882752514781,0
1028,0.041120000000000045,5.000049991798719,0.04123525605372079,0.033845060280790484,0
1029,0.041160000000000085,5.000378781950543,0.04123525605372079,0.033879338342203136,0
1030,0.0411999999999999,5.000049991798719,0.03893372714954513,0.031611980332333534,0
1031,0.04123999999999994,5.000049991798719,0.033015509995673945,0.025727826790080233,0
1032,0.04127999999999998,4.99972120164681,0.02315181482994949,0.01589808783926111,0
1033,0.04132000000000002,4.99972120164681,0.011972960446309217,0.004753082161346456,0
1034,0.04136000000000006,4.999392411494816,-0.0024937920677107622,-0.009679929267038256,0
1035,0.0414000000000001,5.000378781950543,-0.01926207308192608,-0.026414576925063715,0
1036,0.04143999999999992,4.99972120164681,-0.03668793339048888,-0.04380691171468204,0
1037,0.04147999999999996,5.000378781950543,-0.05707290159361651,-0.064158462342356,0
1038,0.04152,4.999392411494816,-0.07745786929788322,-0.0845101205193522,0
1039,0.04156000000000004,4.99972120164681,-0.09751404671038476,-0.10453309655590604,0
1040,0.04160000000000008,5.000707572102282,-0.1182278031965366,-0.1252137599190212,0
1041,0.0416399999999999,5.000049991798719,-0.13861276938427458,-0.14556574133667025,0
1042,0.04167999999999994,5.000049991798719,-0.1599841043536892,-0.1669041999874297,0
1043,0.04171999999999998,5.000049991798719,-0.17971148997635578,-0.1865988178398112,0
1044,0.04176000000000002,4.99972120164681,-0.19779492637033497,-0.20464959510726285,0
1045,0.04180000000000006,4.99972120164681,-0.21620715209501734,-0.22302927044301443,0
1046,0.0418400000000001,5.000049991798719,-0.23330421845604804,-0.24009389524500324,0
1047,0.04187999999999992,4.999392411494816,-0.24842854608150067,-0.2551858902320493,0
1048,0.04191999999999996,5.000378781950543,-0.2635528734151684,-0.2702779939371477,0
1049,0.04196,4.99972120164681,-0.2773620415942758,-0.28405504758518096,0
1050,0.04200000000000004,4.99972120164681,-0.29117120952797193,-0.2978322101714134,0
1051,0.04204000000000008,4.99972120164681,-0.3020212698744679,-0.30865037443862947,0
1052,0.042079999999999895,5.000378781950543,-0.31188496096610946,-0.3184822788022068,0
1053,0.042119999999999935,4.99972120164681,-0.32010470344584,-0.32667034398658185,0
1054,0.042159999999999975,4.999392411494816,-0.32766686644940096,-0.33420093920745103,0
1055,0.042200000000000015,5.000378781950543,-0.33325629123010236,-0.339758905796543,0
1056,0.042240000000000055,5.000049991798719,-0.34016087472627016,-0.3466321407690672,0
1057,0.042280000000000095,5.000049991798719,-0.3444351406687618,-0.3508751679312303,0
1058,0.04231999999999991,5.000049991798719,-0.34772303753127687,-0.3541319358305482,0
1059,0.04235999999999995,4.99972120164681,-0.3506821446953907,-0.3570600239208813,0
1060,0.04239999999999999,5.000378781950543,-0.3516685137475356,-0.35801548385941817,0
1061,0.04244000000000003,5.000049991798719,-0.35298367248173695,-0.35929984350941263,0
1062,0.04248000000000007,5.000707572102282,-0.3533124621649315,-0.35959794420550395,0
1063,0.04252000000000011,5.000049991798719,-0.35133972406362957,-0.3575946272803801,0
1064,0.04255999999999993,4.99972120164681,-0.3493669859572063,-0.3555914205780709,0
1065,0.04259999999999997,4.999392411494816,-0.34607908910179486,-0.35227316541784265,0
1066,0.04264000000000001,5.000049991798719,-0.34344877160723836,-0.3496125999711521,0
1067,0.04268000000000005,4.999063621342738,-0.33818813659088265,-0.3443218274154416,0
1068,0.04272000000000009,5.000049991798719,-0.33325629123010236,-0.33935995498666593,0
1069,0.04275999999999991,5.000049991798719,-0.3289820252250059,-0.33505577244199947,0
1070,0.04279999999999995,5.000378781950543,-0.3247077591960278,-0.33075170045742974,0
1071,0.04283999999999999,4.99972120164681,-0.3191183343529189,-0.3251325802967491,0
1072,0.04288000000000003,4.99972120164681,-0.31418648886930034,-0.3201711501861099,0
1073,0.04292000000000007,5.000049991798719,-0.3095834330560298,-0.31553862048739306,0
1074,0.04296000000000011,4.99972120164681,-0.3039940081029004,-0.30991983243990856,0
1075,0.04299999999999993,4.99972120164681,-0.2997197419349193,-0.30561631401667605,0
1076,0.04303999999999997,4.99972120164681,-0.2944591066187571,-0.3003265373308753,0
1077,0.04308000000000001,5.000049991798719,-0.29051363010813797,-0.29635203038123825,0
1078,0.04312000000000005,4.99972120164681,-0.28722573300058957,-0.2930352138088016,0
1079,0.04316000000000009,4.99972120164681,-0.2832802564531134,-0.2890609288125784,0
1080,0.043199999999999905,5.000378781950543,-0.2809787284578157,-0.2867307034251917,0
1081,0.043239999999999945,5.000049991798719,-0.27900599017070005,-0.2847293788416684,0
1082,0.043279999999999985,4.99972120164681,-0.27538930329797584,-0.2810842168057498,0
1083,0.043320000000000025,4.99972120164681,-0.27308777527929984,-0.27875432479313433,0
1084,0.043360000000000065,4.99972120164681,-0.27111503697215866,-0.2767533336958625,0
1085,0.043400000000000105,4.99972120164681,-0.2688135089408429,-0.27442366411129276,0
1086,0.04343999999999992,5.000049991798719,-0.2661831911824424,-0.2717653160680994,0
1087,0.04347999999999996,5.000049991798719,-0.2619089248061193,-0.2674631307055477,0
1088,0.04352,5.000378781950543,-0.25796344813028116,-0.2634898463706691,0
1089,0.04356000000000004,5.000049991798719,-0.25368918170898375,-0.2591878836446657,0
1090,0.04360000000000008,4.99972120164681,-0.2480997563536102,-0.25357087336459205,0
1091,0.0436399999999999,5.000378781950543,-0.24218154122801916,-0.24762518471850437,0
1092,0.04367999999999994,5.000378781950543,-0.235276956858476,-0.2406932382553945,0
1093,0.04371999999999998,5.000707572102282,-0.22672842374561925,-0.2321174544971583,0
1094,0.04376000000000002,4.999392411494816,-0.21916625976089943,-0.22452815133503656,0
1095,0.04380000000000006,5.000378781950543,-0.208644988009767,-0.2139798518928063,0
1096,0.0438400000000001,4.999392411494816,-0.2027267725884327,-0.20803472028354222,0
1097,0.04387999999999992,5.002022732708393,-0.19187671086830504,-0.19715785389405702,0
1098,0.04391999999999996,5.000049991798719,-0.18332817728789086,-0.18858262717680438,0
1099,0.04396,5.000378781950543,-0.17477964361612697,-0.1800075119132126,0
1100,0.04400000000000004,5.000049991798719,-0.16590232009133205,-0.17110371835263968,0
1101,0.04404000000000008,5.000707572102282,-0.15538104763880373,-0.16055608742997232,0
1102,0.0440799999999999,4.99972120164681,-0.14913404205518838,-0.15428283494999862,0
1103,0.04411999999999994,5.000049991798719,-0.13992792847560936,-0.1450505860545388,0
1104,0.04415999999999998,5.000049991798719,-0.13072181479152978,-0.13581844864030979,0
1105,0.04420000000000002,5.000049991798719,-0.12381722946007585,-0.12888795116825025,0
1106,0.04424000000000006,4.999392411494816,-0.11592627472395621,-0.12097119588344252,0
1107,0.0442800000000001,4.99972120164681,-0.10770653012615032,-0.11272576232980303,0
1108,0.044319999999999915,5.000378781950543,-0.10014436502334141,-0.10513801986351673,0
1109,0.044359999999999955,5.000049991798719,-0.09258219985091413,-0.09755038891803786,0
1110,0.044399999999999995,5.000378781950543,-0.08666398358056253,-0.09160681846170005,0
1111,0.044440000000000035,5.000049991798719,-0.0791018182844538,-0.08401941056188345,0
1112,0.044480000000000075,4.999392411494816,-0.07318360191751903,-0.07807606316730858,0
1113,0.044520000000000115,5.000049991798719,-0.06759417530993413,-0.0724616171005199,0
1114,0.04455999999999993,5.000378781950543,-0.06331990787873677,-0.06816244176950514,0
1115,0.04459999999999997,4.999063621342738,-0.06134716905692379,-0.06616490659679525,0
1116,0.04464000000000001,5.000378781950543,-0.06101837925283336,-0.0658114319788492,0
1117,0.04468000000000005,5.000049991798719,-0.058716850620562686,-0.06348533005647455,0
1118,0.04472000000000009,5.001036362253937,-0.059703220035172325,-0.06444723769003463,0
1119,0.04475999999999991,5.000049991798719,-0.06200474866471477,-0.06672441603148044,0
1120,0.04479999999999995,4.99972120164681,-0.06430627728788789,-0.06900170584200727,0
1121,0.04483999999999999,4.99972120164681,-0.06890933451510713,-0.0735806357131295,0
1122,0.04488000000000003,4.99972120164681,-0.07285481211811588,-0.0775020973962951,0
1123,0.04492000000000007,5.000378781950543,-0.07844423869021762,-0.08306761946312025,0
1124,0.04496000000000011,5.000378781950543,-0.08534882440360501,-0.08994841206272192,0
1125,0.04499999999999993,4.99972120164681,-0.09093825089119083,-0.09551415680355169,0
1126,0.04503999999999997,4.99972120164681,-0.09948678544589158,-0.10403912095268159,0
1127,0.04508000000000001,5.000378781950543,-0.10737774034052165,-0.1119066167557014,0
1128,0.04512000000000005,4.999392411494816,-0.11461111559385707,-0.11911664420278595,0
1129,0.04516000000000009,5.000049991798719,-0.12250207034268835,-0.12698436240075076,0
1130,0.04519999999999991,5.000049991798719,-0.13170818411981328,-0.1361673508510479,0
1131,0.04523999999999995,5.000378781950543,-0.1379551898378077,-0.14239134243353857,0
1132,0.04527999999999999,4.99972120164681,-0.14749009320937,-0.15190334282684048,0
1133,0.04532000000000003,5.001365152405508,-0.15472346810596177,-0.15911392586697118,0
1134,0.04536000000000007,5.000378781950543,-0.16294321222794844,-0.1673109892174912,0
1135,0.04540000000000011,5.000049991798719,-0.1737932743404409,-0.17813848160534923,0
1136,0.045439999999999925,5.000707572102282,-0.1767523821638599,-0.18107513071145032,0
1137,0.045479999999999965,4.999392411494816,-0.18760244408953197,-0.19190284488625464,0
1138,0.045520000000000005,4.999392411494816,-0.19286308012169417,-0.19714124409178585,0
1139,0.045560000000000045,5.000378781950543,-0.19845250586784702,-0.2027085438919868,0
1140,0.045600000000000085,4.999392411494816,-0.20239798284151073,-0.2066320057554797,0
1141,0.0456399999999999,4.998734831190575,-0.21028893673008708,-0.21450105532343125,0
1142,0.04567999999999994,5.000049991798719,-0.21127530596064387,-0.21546563097534083,0
1143,0.04571999999999998,4.99972120164681,-0.21423441364495155,-0.21840305577408123,0
1144,0.04576000000000002,5.001365152405508,-0.21423441364495155,-0.21838148353137032,0
1145,0.04580000000000006,4.999063621342738,-0.21817989054016812,-0.222305498775187,0
1146,0.0458400000000001,5.001036362253937,-0.2185086802805486,-0.22261293740261576,0
1147,0.04587999999999992,5.000378781950543,-0.21949504950086995,-0.22357806599425692,0
1148,0.04591999999999996,5.000378781950543,-0.22245415715445271,-0.2265160434479437,0
1149,0.04596,5.000049991798719,-0.22475568532180157,-0.2287965517873864,0
1150,0.04600000000000004,5.000049991798719,-0.22508447505944684,-0.22910443201101716,0
1151,0.04604000000000008,5.000049991798719,-0.2273860032191295,-0.23138516091117914,0
1152,0.0460799999999999,4.99972120164681,-0.22870116216450587,-0.23267963079083492,0
1153,0.04611999999999994,4.99972120164681,-0.22870116216450587,-0.2326590518569284,0
1154,0.04615999999999998,4.99972120164681,-0.23067390057845844,-0.2346113214055146,0
1155,0.04620000000000002,5.000378781950543,-0.2316602697835834,-0.2355773317492549,0
1156,0.04624000000000006,4.99972120164681,-0.23198905951835075,-0.23588587256077959,0
1157,0.0462800000000001,4.99972120164681,-0.2316602697835834,-0.2355369437737949,0
1158,0.04631999999999992,4.999392411494816,-0.23100269031363724,-0.23485933505426712,0
1159,0.04635999999999996,5.000049991798719,-0.23297542872182958,-0.23681215394585492,0
1160,0.0464,5.000049991798719,-0.23133148004867887,-0.23514839541815327,0
1161,0.04644000000000004,5.000707572102282,-0.22968753137209907,-0.23348474647689196,0
1162,0.04648000000000008,5.000049991798719,-0.22968753137209907,-0.23346515572863882,0
1163,0.046519999999999895,5.000378781950543,-0.22672842374561925,-0.23048656679564014,0
1164,0.046559999999999935,5.000707572102282,-0.22475568532180157,-0.22849445643109423,0
1165,0.046599999999999975,5.000049991798719,-0.22245415715445271,-0.22617366561161886,0
1166,0.046640000000000015,5.000049991798719,-0.2175223110589975,-0.22122266607420868,0
1167,0.046680000000000055,5.000049991798719,-0.21653594183621722,-0.22021725253997715,0
1168,0.046720000000000095,5.000049991798719,-0.21193288544700017,-0.21559526088891168,0
1169,0.04675999999999991,5.000378781950543,-0.20798740852068553,-0.21163095766822165,0
1170,0.04679999999999995,5.000378781950543,-0.20437072132100315,-0.20799555305828255,0
1171,0.04683999999999999,4.99972120164681,-0.1997676648612418,-0.2033738879878085,0
1172,0.04688000000000003,4.99972120164681,-0.19615097762417932,-0.19973870085378673,0
1173,0.04692000000000007,5.000378781950543,-0.19056155186188928,-0.19413088382128846,0
1174,0.04696000000000011,5.000378781950543,-0.18760244408953197,-0.1911534933172638,0
1175,0.04699999999999993,5.000049991798719,-0.18497212606045715,-0.18850500100564846,0
1176,0.04703999999999997,5.000049991798719,-0.18069785924475862,-0.18421266826592175,0
1177,0.04708000000000001,4.99972120164681,-0.178067541192985,-0.18156439255682189,0
1178,0.04712000000000005,5.000049991798719,-0.1760948026484882,-0.1795738045286983,0
1179,0.04716000000000009,5.000378781950543,-0.17510843337441945,-0.17856969385051247,0
1180,0.04719999999999991,4.99972120164681,-0.1744508538576997,-0.17789448091381221,0
1181,0.04723999999999995,4.99972120164681,-0.1734644845816094,-0.17689058610532576,0
1182,0.04727999999999999,4.99972120164681,-0.17313569482264318,-0.17654437860382077,0
1183,0.04732000000000003,5.000049991798719,-0.1744508538576997,-0.17784222758729845,0
1184,0.04736000000000007,5.000378781950543,-0.1760948026484882,-0.17946897391740432,0
1185,0.04740000000000011,5.000049991798719,-0.17872512070673813,-0.1820821970046422,0
1186,0.04743999999999993,5.000378781950543,-0.18069785924475862,-0.18403794795893805,0
1187,0.04747999999999997,4.999392411494816,-0.18004027973262504,-0.18336348814683082,0
1188,0.04752000000000001,4.99972120164681,-0.18168422851194627,-0.1849906638052441,0
1189,0.04756000000000005,5.000378781950543,-0.18299938753297212,-0.18628915677859784,0
1190,0.04760000000000009,5.000049991798719,-0.18365696704267448,-0.18693017720689412,0
1191,0.047639999999999905,5.000049991798719,-0.18431454655183616,-0.1875713044928108,0
1192,0.047679999999999945,5.000378781950543,-0.18299938753297212,-0.1862397999996262,0
1193,0.047719999999999985,5.001036362253937,-0.18299938753297212,-0.186223561163867,0
1194,0.047760000000000025,4.99972120164681,-0.18168422851194627,-0.18489226983415794,0
1195,0.047800000000000065,5.000378781950543,-0.17872512070673813,-0.18191713613473978,0
1196,0.047840000000000105,4.99972120164681,-0.17740996167869222,-0.18058605751324147,0
1197,0.04787999999999992,5.000707572102282,-0.1737932743404409,-0.1769535567674715,0
1198,0.04791999999999996,5.000378781950543,-0.1721493255449364,-0.1752939006344547,0
1199,0.04796,4.99972120164681,-0.16820384842199382,-0.17133282212697992,0
1200,0.04800000000000004,5.000707572102282,-0.16458716104228271,-0.16770063919759626,0
1201,0.04804000000000008,5.000378781950543,-0.15965531458921167,-0.16275340291050236,0
1202,0.0480799999999999,4.99972120164681,-0.15702499646856433,-0.16010780055118717,0
1203,0.04811999999999994,5.000049991798719,-0.15307951927151348,-0.15614714458944892,0
1204,0.04815999999999998,5.000378781950543,-0.1481476727480983,-0.15120022465287647,0
1205,0.04820000000000002,5.000049991798719,-0.14453098527848057,-0.1475685689981103,0
1206,0.04824000000000006,5.000049991798719,-0.13861276938427458,-0.14163549002217712,0
1207,0.0482800000000001,5.000378781950543,-0.13400971254782096,-0.13701767508176926,0
1208,0.04831999999999992,5.000378781950543,-0.1277627067995044,-0.130756016080567,0
1209,0.04835999999999996,5.000378781950543,-0.12283086012223408,-0.1258096208737248,0
1210,0.0484,5.000707572102282,-0.11724143385193893,-0.12020575066837136,0
1211,0.04844000000000004,5.000378781950543,-0.11132321775935598,-0.11427319510540285,0
1212,0.04848000000000008,5.000378781950543,-0.10474742205074437,-0.10768316426020177,0
1213,0.0485199999999999,5.000049991798719,-0.09784283649996468,-0.10076444777472093,0
1214,0.04855999999999994,5.000378781950543,-0.09028067130638286,-0.09318825571539185,0
1215,0.04859999999999998,5.000378781950543,-0.08271850604340404,-0.08561216752166412,0
1216,0.04864000000000002,5.000707572102282,-0.07416997131494572,-0.07704981366248298,0
1217,0.04868000000000006,4.99972120164681,-0.06562143649826817,-0.06848756337912554,0
1218,0.0487200000000001,4.999063621342738,-0.058716850620562686,-0.06156936556179371,0
1219,0.048759999999999915,5.000049991798719,-0.050168315645034,-0.05300732203570174,0
1220,0.048799999999999955,5.000378781950543,-0.04129099077011207,-0.04411659186029332,0
1221,0.048839999999999995,5.000707572102282,-0.03274245561641449,-0.03555475451620893,0
1222,0.048880000000000035,5.000049991798719,-0.025180289830972882,-0.02797938950951695,0
1223,0.048920000000000075,4.99972120164681,-0.017289334156344746,-0.02007533744083062,0
1224,0.048960000000000115,5.000378781950543,-0.010055958056451306,-0.012828967631151156,0
1225,0.04899999999999993,4.99972120164681,-0.0015074225859438989,-0.004267540991239105,0
1226,0.04903999999999997,5.000049991798719,0.005725953648695714,0.002978624017280107,0
1227,0.04908000000000001,4.999392411494816,0.011972960446309217,0.00923831733906516,0
1228,0.04912000000000005,5.000707572102282,0.01789117745471111,0.015169118768704082,0
1229,0.04916000000000009,5.000707572102282,0.023809394504130166,0.02109981828415025,0
1230,0.04919999999999991,5.000378781950543,0.027754872559823354,0.025057676999331535,0
1231,0.04923999999999995,5.001036362253937,0.0313715607935042,0.028686644235573378,0
1232,0.04927999999999999,5.000049991798719,0.03465945920099257,0.03198672013924325,0
1233,0.04932000000000003,5.000707572102282,0.03597461856751347,0.03331395564704409,0
1234,0.04936000000000007,5.000049991798719,0.036303408409458296,0.03365472042777007,0
1235,0.04940000000000011,4.99972120164681,0.037289777936047624,0.03465296384396466,0
1236,0.04943999999999993,5.000378781950543,0.0353170388840013,0.032691997786585825,0
1237,0.04947999999999997,5.000049991798719,0.03268672015498804,0.030073351312450203,0
1238,0.04952000000000001,4.99972120164681,0.029727611594485073,0.027125814423087924,0
1239,0.04956000000000005,4.99972120164681,0.027097292882612076,0.024506966955571197,0
1240,0.04960000000000009,4.99972120164681,0.021507865646709548,0.018928910695087786,0
1241,0.049639999999999906,5.000378781950543,0.016904807950460177,0.0143371238640575,0
1242,0.049679999999999946,5.000049991798719,0.012630540111881347,0.010074026940119551,0
1243,0.049719999999999986,5.000378781950543,0.006054743479005864,0.0035093014318076654,0
1244,0.049760000000000026,5.000378781950543,0.0004653163810297567,-0.002069154170307508,0
1245,0.049800000000000066,5.000049991798719,-0.004466531027802631,-0.006990129549738988,0
1246,0.049840000000000106,5.000378781950543,-0.00939837840793746,-0.011911204203827519,0
1247,0.049879999999999924,4.99972120164681,-0.015316595226152155,-0.017818747435388305,0
1248,0.049919999999999964,5.000378781950543,-0.021892391642189743,-0.02438396923935049,0
1249,0.049960000000000004,5.000378781950543,-0.026495449102891075,-0.028976550896894382,0
1250,0.050000000000000044,5.000378781950543,-0.03208487598559902,-0.034555600618861565,0
1251,0.050040000000000084,5.000049991798719,-0.037016723204157484,-0.039477169151758945,0
1252,0.0500799999999999,5.000378781950543,-0.04063341114600001,-0.043083676714853164,0
1253,0.05011999999999994,5.000378781950543,-0.04589404812443025,-0.04833423145245652,0
1254,0.05015999999999998,5.000707572102282,-0.04951073602790314,-0.051940935083213985,0
1255,0.05020000000000002,5.000049991798719,-0.05378500352999273,-0.05620531611007609,0
1256,0.05024000000000006,4.99972120164681,-0.05707290159361651,-0.059483425324529215,0
1257,0.0502800000000001,5.000049991798719,-0.05805927101017365,-0.06046010334573984,0
1258,0.05031999999999992,5.000049991798719,-0.059703220035172325,-0.062094458256187646,0
1259,0.05035999999999996,4.99972120164681,-0.06200474866471477,-0.0643864898781562,0
1260,0.0504,5.000049991798719,-0.06200474866471477,-0.0643770898029559,0
1261,0.05044000000000004,4.99972120164681,-0.06233353846841526,-0.0646965762884468,0
1262,0.05048000000000008,5.000378781950543,-0.0626623282719858,-0.06501615935464217,0
1263,0.0505199999999999,4.99972120164681,-0.06233353846841526,-0.06467825921760659,0
1264,0.05055999999999994,4.99972120164681,-0.06134716905692379,-0.06368287569887363,0
1265,0.05059999999999998,5.000049991798719,-0.060689589448612954,-0.0630163780311015,0
1266,0.05064000000000002,4.99972120164681,-0.059703220035172325,-0.06202118642678511,0
1267,0.05068000000000006,4.999392411494816,-0.059374430230432304,-0.061683670119814404,0
1268,0.0507200000000001,5.000378781950543,-0.05805927101017365,-0.060359879905289265,0
1269,0.050759999999999916,5.000378781950543,-0.05707290159361651,-0.05936497482101452,0
1270,0.050799999999999956,5.000049991798719,-0.05608653217589139,-0.05837016487997651,0
1271,0.050839999999999996,5.000378781950543,-0.054771372950441696,-0.05704666009275147,0
1272,0.050880000000000036,5.000378781950543,-0.05510016275699865,-0.057367199115486295,0
1273,0.050920000000000076,4.99972120164681,-0.05378500352999273,-0.056043883698315866,0
1274,0.050960000000000116,5.000378781950543,-0.05279863410837703,-0.055049452495192275,0
1275,0.050999999999999934,5.000049991798719,-0.05181226468559495,-0.05405511551385786,0
1276,0.051039999999999974,4.99972120164681,-0.05214105449331856,-0.054376031799589636,0
1277,0.051080000000000014,5.000707572102282,-0.05049710545340523,-0.05272430308716186,0
1278,0.051120000000000054,4.99972120164681,-0.05082589526164695,-0.053045406884601354,0
1279,0.051160000000000094,5.000049991798719,-0.04951073602790314,-0.051722655113325994,0
1280,0.05119999999999991,5.000378781950543,-0.0498395258365333,-0.05204394566858342,0
1281,0.05123999999999995,4.99972120164681,-0.047537997173404054,-0.04973501084646362,0
1282,0.05127999999999999,5.000707572102282,-0.04720920736386795,-0.04939890778188377,0
1283,0.05132000000000003,5.000378781950543,-0.04622283793448369,-0.048405317810314374,0
1284,0.05136000000000007,4.99972120164681,-0.04523646850393555,-0.047411820358704254,0
1285,0.05140000000000011,5.000049991798719,-0.0445788888829237,-0.046747205045376716,0
1286,0.05143999999999993,5.000049991798719,-0.04194857039370768,-0.044109942999579155,0
1287,0.05147999999999997,5.000378781950543,-0.0389894620834612,-0.041143983074843765,0
1288,0.05152000000000001,5.000049991798719,-0.03668793339048888,-0.0388356945152101,0
1289,0.05156000000000005,4.99972120164681,-0.03208487598559902,-0.034225968796603584,0
1290,0.05160000000000009,5.000049991798719,-0.029783347273691016,-0.03191786312842901,0
1291,0.05163999999999991,4.99972120164681,-0.025509079649145103,-0.0276371097089661,0
1292,0.05167999999999995,4.99972120164681,-0.02090602218305261,-0.023027657412605457,0
1293,0.05171999999999999,4.999392411494816,-0.01630296469182467,-0.018418295858463107,0
1294,0.05176000000000003,5.000049991798719,-0.0113711173519455,-0.013480235025139481,0
1295,0.05180000000000007,4.999392411494816,-0.006439269983302923,-0.008542264534056015,0
1296,0.05184000000000011,5.000049991798719,-0.0005210531030302584,-0.0026180147033029455,0
1297,0.051879999999999926,5.000049991798719,0.003753214669504526,0.0016621960473650055,0
1298,0.051919999999999966,5.000049991798719,0.009342641789095676,0.007257476372919319,0
1299,0.051960000000000006,5.000049991798719,0.014274489278030808,0.01219508749638315,0
1300,0.052000000000000046,4.99972120164681,0.019206336795484613,0.01713260927821858,0
1301,0.052040000000000086,4.999392411494816,0.023480604666976643,0.021412462245778807,0
1302,0.052079999999999904,5.000378781950543,0.028083662398618273,0.026021016107548867,0
1303,0.052119999999999944,5.000049991798719,0.03202914047399413,0.02997190155002058,0
1304,0.052159999999999984,5.000049991798719,0.03564582872569445,0.03359390860921893,0
1305,0.052200000000000024,5.000378781950543,0.03860493730659416,0.03655824764197568,0
1306,0.052240000000000064,4.999392411494816,0.04255041543029908,0.04050886806636941,0
1307,0.052280000000000104,4.99972120164681,0.04419436465384674,0.04215787164442042,0
1308,0.05231999999999992,5.000378781950543,0.04715347326413659,0.04512194686851442,0
1309,0.05235999999999996,5.000049991798719,0.04879742249646346,0.04677077517992975,0
1310,0.0524,4.999392411494816,0.050770161579389975,0.048748306013703585,0
1311,0.05244000000000004,5.000378781950543,0.051098951426982675,0.049081800490862165,0
1312,0.05248000000000008,5.000049991798719,0.052085320970511856,0.05007278775011484,0
1313,0.0525199999999999,5.000049991798719,0.05274290066682373,0.05073489845622001,0
1314,0.05255999999999994,5.000049991798719,0.05372927021222988,0.05172571251386862,0
1315,0.05259999999999998,5.000378781950543,0.05307169051516736,0.05107249104033737,0
1316,0.05264000000000002,4.99972120164681,0.05372927021222988,0.05173434288151421,0
1317,0.05268000000000006,5.000049991798719,0.05372927021222988,0.05173852915595409,0
1318,0.0527200000000001,4.99972120164681,0.05340048036363608,0.05141383992231019,0
1319,0.05275999999999992,5.000049991798719,0.05471563975876172,0.05273301448351564,0
1320,0.05279999999999996,4.99972120164681,0.054058060060948765,0.05207936471396232,0
1321,0.05284,4.99972120164681,0.05274290066682373,0.05076805022175049,0
1322,0.05288000000000004,5.000049991798719,0.052085320970511856,0.05011423061289699,0
1323,0.05292000000000008,5.000378781950543,0.05175653112254362,0.04978911625023627,0
1324,0.052959999999999896,5.000707572102282,0.05175653112254362,0.04979270734610294,0
1325,0.052999999999999936,4.99972120164681,0.051098951426982675,0.04913863457007778,0
1326,0.053039999999999976,5.000049991798719,0.050770161579389975,0.048813267679194,0
1327,0.053080000000000016,5.000378781950543,0.05044137173192248,0.048487817039499864,0
1328,0.053120000000000056,4.99972120164681,0.04945500219027131,0.047504703170959756,0
1329,0.053160000000000096,5.000049991798719,0.04846863264974746,0.04652150598353352,0
1330,0.053199999999999914,5.000378781950543,0.04846863264974746,0.046524595231636295,0
1331,0.053239999999999954,4.99972120164681,0.04945500219027131,0.04751397113065023,0
1332,0.053279999999999994,4.99972120164681,0.048139842803156765,0.04620173542815273,0
1333,0.053320000000000034,5.000049991798719,0.04781105295669137,0.04587578680852203,0
1334,0.053360000000000074,5.000378781950543,0.048139842803156765,0.04620733564047569,0
1335,0.053400000000000114,5.000049991798719,0.048139842803156765,0.046210012601392236,0
1336,0.05343999999999993,5.000049991798719,0.048139842803156765,0.046212607754844565,0
1337,0.05347999999999997,4.99972120164681,0.04682468341804723,0.04489996193315743,0
1338,0.05352000000000001,5.000049991798719,0.04781105295669137,0.04588876366294911,0
1339,0.05356000000000005,4.99972120164681,0.04912621234330475,0.04720627408650471,0
1340,0.05360000000000009,4.99972120164681,0.04846863264974746,0.046550964494062264,0
1341,0.05363999999999991,5.000707572102282,0.05044137173192248,0.04852589296020465,0
1342,0.05367999999999995,5.000049991798719,0.048139842803156765,0.046226472917234834,0
1343,0.05371999999999999,5.000707572102282,0.04879742249646346,0.04688608121743154,0
1344,0.05376000000000003,4.998734831190575,0.04945500219027131,0.04754560945877251,0
1345,0.05380000000000007,5.000049991798719,0.04715347326413659,0.04524594924064035,0
1346,0.05384000000000011,5.001365152405508,0.050770161579389975,0.04886442664446303,0
1347,0.05387999999999993,4.999063621342738,0.04945500219027131,0.047550976944842865,0
1348,0.05391999999999997,5.002351522859708,0.051098951426982675,0.04919655669260317,0
1349,0.05396000000000001,5.000049991798719,0.04912621234330475,0.047225369162398556,0
1350,0.05400000000000005,4.997748460733576,0.05274290066682373,0.050843530302935674,0
1351,0.05404000000000009,4.99972120164681,0.04616710372624461,0.044269127664280344,0
1352,0.054079999999999906,4.999063621342738,0.050770161579389975,0.04887350152585013,0
1353,0.054119999999999946,4.9970908804284875,0.05142774127470057,0.04953231915790868,0
1354,0.054159999999999986,4.999063621342738,0.04912621234330475,0.04723195031362884,0
1355,0.054200000000000026,5.002351522859708,0.051098951426982675,0.049205771857050606,0
1356,0.054240000000000066,5.001365152405508,0.05603079915588792,0.054138624640796384,0
1357,0.054280000000000106,5.000378781950543,0.05307169051516736,0.05118044387268478,0
1358,0.054319999999999924,4.99972120164681,0.05274290066682373,0.05085250493758717,0
1359,0.054359999999999964,5.000049991798719,0.05537321945707481,0.05348359790478083,0
1360,0.054400000000000004,5.000049991798719,0.05537321945707481,0.05348429556866413,0
1361,0.054440000000000044,5.000378781950543,0.05701716870504489,0.055128866190881004,0
1362,0.054480000000000084,5.001036362253937,0.05767474840510757,0.0557869911991494,0
1363,0.0545199999999999,5.000378781950543,0.05767474840510757,0.055787460665075894,0
1364,0.05455999999999994,5.000049991798719,0.05833232810566989,0.056445434213207496,0
1365,0.05459999999999998,5.000049991798719,0.059647487508292976,0.057760912069118625,0
1366,0.05464000000000002,5.000378781950543,0.059647487508292976,0.05776115535234938,0
1367,0.05468000000000006,5.000707572102282,0.06063385706157101,0.05874769324316642,0
1368,0.0547200000000001,5.000378781950543,0.061291436764380286,0.059405366562324535,0
1369,0.05475999999999992,5.000049991798719,0.06162022661597208,0.05973417553370633,0
1370,0.05479999999999996,4.999392411494816,0.0626065961714958,0.06072048993721635,0
1371,0.05484,5.000049991798719,0.061949016467688606,0.060062781034464274,0
1372,0.05488000000000004,5.000049991798719,0.0626065961714958,0.060720157717379236,0
1373,0.05492000000000008,4.99972120164681,0.06162022661597208,0.05973351154410489,0
1374,0.0549599999999999,5.000049991798719,0.061291436764380286,0.0594043717030919,0
1375,0.05499999999999994,5.000049991798719,0.0626065961714958,0.060719107974396225,0
1376,0.05503999999999998,5.000049991798719,0.06293538602358648,0.0610474017696529,0
1377,0.05508000000000002,5.000049991798719,0.06326417587580183,0.06137562286945901,0
1378,0.05512000000000006,5.000378781950543,0.06293538602358648,0.06104619179478092,0
1379,0.0551600000000001,5.000049991798719,0.0626065961714958,0.06071668847576381,0
1380,0.055199999999999916,5.000378781950543,0.0626065961714958,0.06071590299002541,0
1381,0.055239999999999956,5.000707572102282,0.06392175558060653,0.062030205120293,0
1382,0.055279999999999996,5.000049991798719,0.06392175558060653,0.062029276274101874,0
1383,0.055320000000000036,5.000049991798719,0.06392175558060653,0.0620282760863628,0
1384,0.055360000000000076,5.000049991798719,0.06523691499171154,0.06334236419401816,0
1385,0.055400000000000116,5.000707572102282,0.06622328455134852,0.06432759156036347,0
1386,0.055439999999999934,4.99972120164681,0.06589449469801162,0.06399758884978661,0
1387,0.055479999999999974,5.000378781950543,0.0672096541121064,0.06531146496860604,0
1388,0.055520000000000014,5.000049991798719,0.06688086425839593,0.06498132160751063,0
1389,0.055560000000000054,5.000049991798719,0.06819602367398483,0.06629505752953731,0
1390,0.055600000000000094,5.000378781950543,0.06786723381990087,0.06596477442164665,0
1391,0.05563999999999991,4.99972120164681,0.06753844396594139,0.06563442177956312,0
1392,0.05567999999999995,5.000707572102282,0.06885360338252611,0.06694794909962183,0
1393,0.05571999999999999,4.99972120164681,0.06852481352819326,0.0666174580662584,0
1394,0.05576000000000003,5.000049991798719,0.06983997294627126,0.06793084744867427,0
1395,0.05580000000000007,4.99972120164681,0.06885360338252611,0.06694263921847797,0
1396,0.05584000000000011,5.000049991798719,0.06819602367398483,0.0662831524385024,0
1397,0.05587999999999993,4.99972120164681,0.0672096541121064,0.0652948076259696,0
1398,0.05591999999999997,5.000049991798719,0.06753844396594139,0.06562155427564441,0
