,seconds,Trig,EMG_amplitude,EMG_amplitude_filter,peaks
0,0.0,5.000049991798719,-0.09258219985091413,0.0687856414582528,0
1,4.0000000000040004e-05,5.000707572102282,-0.09784283649996468,0.07409164804170912,0
2,8.000000000008001e-05,5.000707572102282,-0.10211710375253198,0.0784113146803631,0
3,0.00011999999999989797,5.000707572102282,-0.10836410969701198,0.08470374922412127,0
4,0.00015999999999993797,5.000378781950543,-0.1136247462448944,0.09000984334560767,0
5,0.00019999999999997797,5.000707572102282,-0.11789901341513638,0.09432959682453948,0
6,0.00024000000000001798,5.000378781950543,-0.12250207034268835,0.09897816855625498,0
7,0.000280000000000058,5.000378781950543,-0.12480359879672413,0.1013252400699454,0
8,0.000320000000000098,5.000378781950543,-0.12874907613137498,0.10531628847939106,0
9,0.00035999999999991594,5.000378781950543,-0.13203697389564184,0.10864978509287578,0
10,0.00039999999999995595,5.000049991798719,-0.13137939434385165,0.10803783192364491,0
11,0.00043999999999999595,5.000707572102282,-0.1323657636713375,0.10906985492558774,0
12,0.00048000000000003595,5.000707572102282,-0.1330233432223299,0.10977311520113085,0
13,0.000520000000000076,5.000378781950543,-0.1333521329976266,0.11014761250890967,0
14,0.0005599999999998939,5.000049991798719,-0.13466729209748313,0.11150850570666089,0
15,0.0005999999999999339,4.99972120164681,-0.13664003074327558,0.11352700477288737,0
16,0.0006399999999999739,5.000378781950543,-0.14124308756481152,0.11817584809417127,0
17,0.0006800000000000139,5.000378781950543,-0.14650372390027555,0.12348229676512174,0
18,0.0007200000000000539,5.000049991798719,-0.15242193973679719,0.129446350528945,0
19,0.0007600000000000939,5.000378781950543,-0.1586689452949745,0.13573921936196998,0
20,0.0007999999999999119,5.000707572102282,-0.16458716104228271,0.14170332348705966,0
21,0.0008399999999999519,5.000707572102282,-0.1718205357854315,0.14898261146597025,0
22,0.0008799999999999919,5.000378781950543,-0.18332817728789086,0.16053619081687934,0
23,0.0009200000000000319,5.000707572102282,-0.19319186987255288,0.1704458456170496,0
24,0.0009600000000000719,5.000378781950543,-0.2027267725884327,0.1800267346695321,0
25,0.001000000000000112,4.999392411494816,-0.21127530596064387,0.18862127825314373,0
26,0.0010399999999999299,5.000378781950543,-0.2198238392407038,0.197215845372775,0
27,0.0010799999999999699,5.001036362253937,-0.2273860032191295,0.2048240665719874,0
28,0.0011200000000000099,5.000049991798719,-0.23396179792407312,0.21144594163165104,0
29,0.0011600000000000499,5.000707572102282,-0.23626332605783606,0.21379357300646062,0
30,0.0012000000000000899,5.000049991798719,-0.2359345363248534,0.21351090915292226,0
31,0.0012399999999999078,4.99972120164681,-0.23297542872182958,0.210597949819491,0
32,0.0012799999999999478,5.000049991798719,-0.2273860032191295,0.20505469472796378,0
33,0.0013199999999999878,5.000049991798719,-0.21817989054016812,0.1958947743528714,0
34,0.0013600000000000279,5.001036362253937,-0.20502830081307927,0.18278939857314927,0
35,0.0014000000000000679,5.000378781950543,-0.19056155186188928,0.16836888496331354,0
36,0.0014400000000001079,5.001036362253937,-0.17477964361612697,0.15263323320307265,0
37,0.0014799999999999258,4.99972120164681,-0.1583401555299606,0.1362400224964665,0
38,0.0015199999999999658,5.000707572102282,-0.14255824665188005,0.12050441164155071,0
39,0.0015600000000000058,5.000378781950543,-0.13006423523867633,0.1080567186443783,0
40,0.0016000000000000458,5.000049991798719,-0.12085812144297166,0.09889694340653143,0
41,0.0016400000000000858,5.000378781950543,-0.11592627472395621,0.09401145513586057,0
42,0.0016799999999999038,5.000378781950543,-0.11461111559385707,0.09274267409295547,0
43,0.0017199999999999438,5.000049991798719,-0.11987175210155175,0.0980497080747608,0
44,0.0017599999999999838,5.000049991798719,-0.12809149657692737,0.10631586915893745,0
45,0.0018000000000000238,5.000049991798719,-0.13598245119521052,0.11425325926819446,0
46,0.0018400000000000638,5.000049991798719,-0.14453098527848057,0.12284824747180462,0
47,0.0018800000000001038,5.000049991798719,-0.1557098374050238,0.13407357209496074,0
48,0.0019199999999999218,5.000049991798719,-0.16458716104228271,0.1429973863517272,0
49,0.0019599999999999618,4.99972120164681,-0.1718205357854315,0.15027726958361748,0
50,0.0020000000000000018,5.000707572102282,-0.17971148997635578,0.15821474987857614,0
51,0.0020400000000000418,5.000049991798719,-0.18530091581456487,0.16385071918189276,0
52,0.002080000000000082,5.000049991798719,-0.1882600235954478,0.16685638753446014,0
53,0.0021199999999998997,5.000378781950543,-0.1899039723578687,0.16854691372037195,0
54,0.0021599999999999397,5.000049991798719,-0.18891760310082228,0.16760713848358028,0
55,0.0021999999999999797,4.99972120164681,-0.18793123384255755,0.16666737958702146,0
56,0.0022400000000000198,5.000378781950543,-0.1869448645830749,0.16572763677511518,0
57,0.0022800000000000598,5.000707572102282,-0.1872736543363711,0.1661030688060116,0
58,0.0023200000000000998,5.000378781950543,-0.1869448645830749,0.1658209369042295,0
59,0.0023599999999999177,5.000049991798719,-0.19023276210994672,0.16915550760015796,0
60,0.0023999999999999577,5.000378781950543,-0.19286308012169417,0.17183251384187426,0
61,0.0024399999999999977,4.99972120164681,-0.19615097762417932,0.17516711437835283,0
62,0.0024800000000000377,5.000378781950543,-0.20141161359992904,0.18047446793497818,0
63,0.0025200000000000777,5.000378781950543,-0.20963135724236776,0.18874094344777953,0
64,0.0025599999999998957,5.000049991798719,-0.21686473157728053,0.1960210636848959,0
65,0.0025999999999999357,4.99972120164681,-0.22541326479695517,0.20461635658071992,0
66,0.0026399999999999757,5.000378781950543,-0.23363300819012922,0.21288287316584648,0
67,0.0026800000000000157,5.000378781950543,-0.24218154122801916,0.22147819265310398,0
68,0.0027200000000000557,5.000378781950543,-0.2480997563536102,0.22744320722684624,0
69,0.0027600000000000957,5.000049991798719,-0.25204523307919086,0.23143549614048894,0
70,0.0027999999999999137,5.000378781950543,-0.2543467611599342,0.2337838488900934,0
71,0.0028399999999999537,5.000049991798719,-0.25533313033532373,0.23481705495579436,1
72,0.0028799999999999937,5.000378781950543,-0.2513876536263073,0.2309184270989563,0
73,0.0029200000000000337,5.000049991798719,-0.24612701798337294,0.2257046520102511,0
74,0.0029600000000000737,5.000378781950543,-0.23823606445284673,0.21786057047595853,0
75,0.0029999999999998916,5.000707572102282,-0.22672842374561925,0.20639981294669518,0
76,0.0030399999999999316,4.99972120164681,-0.21456320338697038,0.19428148668724127,0
77,0.0030799999999999716,4.99972120164681,-0.19911008536481606,0.17887527342479004,0
78,0.0031200000000000117,5.000378781950543,-0.18299938753297212,0.1628114907522137,0
79,0.0031600000000000517,5.000378781950543,-0.16590232009133205,0.14576134860824352,0
80,0.0032000000000000917,4.999392411494816,-0.14551735458997894,0.12542331828158354,0
81,0.0032399999999999096,5.000049991798719,-0.12578996813217858,0.10574287661390566,0
82,0.0032799999999999496,5.000378781950543,-0.10441863226392899,0.08441849488940169,0
83,0.0033199999999999896,5.000378781950543,-0.08173213665616903,0.06177896251699378,0
84,0.0033600000000000296,5.000378781950543,-0.06167595886088427,0.04176975678644268,0
85,0.0034000000000000696,5.000378781950543,-0.04063341114600001,0.020774189703243004,0
86,0.0034400000000001096,4.99972120164681,-0.021563601822605624,0.0017513693158495852,0
87,0.0034799999999999276,5.000049991798719,-0.004137741201439435,-0.015627494327835292,0
88,0.0035199999999999676,5.000378781950543,0.012301750279031881,-0.03201998105238041,0
89,0.0035600000000000076,4.99972120164681,0.025782133529704057,-0.04545335203191431,0
90,0.0036000000000000476,5.000707572102282,0.03663219825152894,-0.056256397230816574,0
91,0.0036400000000000876,5.000049991798719,0.046495893572083224,-0.06607306604028432,0
92,0.0036799999999999056,5.000378781950543,0.052414110818605225,-0.07194425005136668,0
93,0.0037199999999999456,5.000378781950543,0.05800353825532628,-0.077486637792294,0
94,0.0037599999999999856,5.000049991798719,0.06162022661597208,-0.08105628026097692,0
95,0.0038000000000000256,5.000707572102282,0.06359296572814185,-0.08298196754938328,0
96,0.0038400000000000656,5.000049991798719,0.06490812513874837,-0.08425006946897612,0
97,0.0038800000000001056,5.000049991798719,0.06523691499171154,-0.08453179642840478,0
98,0.0039199999999999235,5.000049991798719,0.06490812513874837,-0.08415593854429276,0
99,0.0039599999999999635,5.000707572102282,0.06457933528590981,-0.08378007578777233,0
100,0.0040000000000000036,5.000378781950543,0.0626065961714958,-0.08176025916239713,0
101,0.0040400000000000436,5.000049991798719,0.05898990780673173,-0.07809648894481647,0
102,0.0040800000000000836,5.000378781950543,0.056688378855200935,-0.0757478740642053,0
103,0.0041199999999999015,5.000049991798719,0.05372927021222988,-0.07274167568164713,0
104,0.0041599999999999415,4.99972120164681,0.05044137173192248,-0.06940668391716606,0
105,0.0041999999999999815,4.999392411494816,0.04616710372624461,-0.06508531934880923,0
106,0.0042400000000000215,5.000707572102282,0.04287920527475757,-0.06175032132237826,0
107,0.0042800000000000615,5.000707572102282,0.03893372714954513,-0.05775774087635363,0
108,0.0043200000000001015,5.001036362253937,0.037618567778495635,-0.05639547670517503,0
109,0.0043599999999999195,4.998406041038327,0.025453343691792682,-0.04418314560572953,0
110,0.0043999999999999595,5.001693942556992,0.0264397132059056,-0.0451224061613395,0
111,0.0044399999999999995,5.000049991798719,0.019206336795484613,-0.0378419191136555,0
112,0.0044800000000000395,4.99972120164681,0.012630540111881347,-0.031219010381174694,0
113,0.0045200000000000795,5.001693942556992,0.014603279111640999,-0.033144636187730586,0
114,0.0045599999999998975,4.997419670581074,0.008356272294735026,-0.026850515300723354,0
115,0.0045999999999999375,5.001693942556992,0.008356272294735026,-0.026803400621291815,0
116,0.0046399999999999775,4.99972120164681,0.006054743479005864,-0.024454756784504095,0
117,0.0046800000000000175,5.001365152405508,0.001780475694892425,-0.02013337390554197,0
118,0.0047200000000000575,4.99972120164681,0.00013652655288240445,-0.018442309862861134,0
119,0.0047600000000000975,4.997748460733576,0.0030956350107915753,-0.021354303882374,0
120,0.0047999999999999154,5.000378781950543,-0.001178632758433426,-0.017032922405250103,0
121,0.0048399999999999554,4.999063621342738,-0.005124110680146385,-0.013040331774482564,0
122,0.0048799999999999955,4.999063621342738,-0.012028696998925656,-0.006088634013961605,0
123,0.0049200000000000355,5.000707572102282,-0.014659015581730453,-0.003411205525315694,0
124,0.0049600000000000755,4.99972120164681,-0.014659015581730453,-0.0033640974240794763,0
125,0.004999999999999893,5.000378781950543,-0.018275703619711994,0.00029969664171464183,0
126,0.005039999999999933,5.000707572102282,-0.019590862902407788,0.0016619596098687156,0
127,0.005079999999999973,5.000707572102282,-0.022549971280973066,0.004668169062497771,0
128,0.005120000000000013,5.000378781950543,-0.024522710194243194,0.0066880061692900505,0
129,0.005160000000000053,5.000707572102282,-0.026824238920549456,0.009036629939325212,0
130,0.0052000000000000934,4.99972120164681,-0.028468188006913683,0.010727670650271352,0
131,0.005239999999999911,5.000378781950543,-0.03208487598559902,0.014391446564938175,0
132,0.005279999999999951,5.000049991798719,-0.03372882506167206,0.016082479618841627,0
133,0.005319999999999991,5.000049991798719,-0.03734551301769716,0.0197462473249006,0
134,0.005360000000000031,4.99972120164681,-0.03866067227056637,0.021108481830269386,0
135,0.005400000000000071,4.99972120164681,-0.03603035376276496,0.01852523380760552,0
136,0.005440000000000111,5.000378781950543,-0.03635914357669136,0.018901089069392273,0
137,0.005479999999999929,5.000378781950543,-0.03372882506167206,0.016317830694956174,0
138,0.005519999999999969,5.000378781950543,-0.03340003524671499,0.01603609544322282,0
139,0.005560000000000009,5.000049991798719,-0.03340003524671499,0.01608314415892477,0
140,0.005600000000000049,4.99972120164681,-0.035043984320212454,0.017774135830362636,0
141,0.005640000000000089,5.000707572102282,-0.03471519450577058,0.017492382225784815,0
142,0.005679999999999907,5.000049991798719,-0.03471519450577058,0.01753941177718498,0
143,0.005719999999999947,5.000378781950543,-0.03274245561641449,0.015613695510307266,0
144,0.005759999999999987,5.000378781950543,-0.0340576148765004,0.01697587019342392,0
145,0.005800000000000027,5.000049991798719,-0.03372882506167206,0.01669408833158737,0
146,0.005840000000000067,4.99972120164681,-0.0340576148765004,0.017069878358714118,0
147,0.005880000000000107,5.000707572102282,-0.0340576148765004,0.017116870559604147,0
148,0.005919999999999925,5.000378781950543,-0.03438640469119987,0.017492644293012186,0
149,0.005959999999999965,5.000378781950543,-0.03471519450577058,0.017868409473281256,0
150,0.006000000000000005,4.99972120164681,-0.03471519450577058,0.017915376015087497,0
151,0.006040000000000045,4.99972120164681,-0.035372774134525484,0.018619913090823892,0
152,0.006080000000000085,4.99972120164681,-0.035043984320212454,0.018338071357686676,0
153,0.006119999999999903,5.000049991798719,-0.03438640469119987,0.017727430173017394,0
154,0.006159999999999943,5.000378781950543,-0.03471519450577058,0.018103148524028598,0
155,0.006199999999999983,5.000049991798719,-0.035043984320212454,0.01847885669589687,0
156,0.006240000000000023,5.001036362253937,-0.03438640469119987,0.017868184974146877,0
157,0.006280000000000063,4.99972120164681,-0.03241366580107112,0.0159423432699312,0
158,0.006320000000000103,5.000707572102282,-0.03340003524671499,0.016975598908919413,0
159,0.006359999999999921,4.999392411494816,-0.03274245561641449,0.016364894208144347,0
160,0.006399999999999961,5.000378781950543,-0.03438640469119987,0.018055706677357626,0
161,0.006440000000000001,5.000707572102282,-0.03372882506167206,0.017444978635855694,0
162,0.006480000000000041,5.000378781950543,-0.03241366580107112,0.016176658885550796,0
163,0.006520000000000081,5.000049991798719,-0.03274245561641449,0.016552275862111707,0
164,0.006559999999999899,5.000049991798719,-0.033071245431629134,0.016927880218098386,0
165,0.006599999999999939,5.000378781950543,-0.03208487598559902,0.01598831242101207,0
166,0.006639999999999979,5.000049991798719,-0.031098506538410467,0.015048731459543115,0
167,0.006680000000000019,5.000049991798719,-0.030112137090063842,0.014109137062285199,0
168,0.006720000000000059,5.000049991798719,-0.031098506538410467,0.015142267855674803,0
169,0.006760000000000099,5.000378781950543,-0.029783347273691016,0.013873855958532098,0
170,0.006799999999999917,4.99972120164681,-0.028796977823800904,0.012934219627328915,0
171,0.006839999999999957,5.000049991798719,-0.030112137090063842,0.01429609749196483,0
172,0.006879999999999997,5.000707572102282,-0.028468188006913683,0.012698852215451646,0
173,0.006920000000000037,5.000378781950543,-0.030112137090063842,0.014389490042085333,0
174,0.006960000000000077,5.000049991798719,-0.030769716722423582,0.015093743083364912,0
175,0.006999999999999895,5.000707572102282,-0.031756086169998185,0.01612677033389516,0
176,0.007039999999999935,4.99972120164681,-0.033071245431629134,0.01748857152112933,0
177,0.007079999999999975,5.000378781950543,-0.03340003524671499,0.017863987113092464,0
178,0.007120000000000015,5.000049991798719,-0.03340003524671499,0.017910596469887595,0
179,0.007160000000000055,5.000049991798719,-0.031098506538410467,0.0156556604269596,0
180,0.007200000000000095,4.99972120164681,-0.030769716722423582,0.015373446313616534,0
181,0.007239999999999913,4.999392411494816,-0.028796977823800904,0.013447265883615805,0
182,0.007279999999999953,4.99972120164681,-0.027481818555480722,0.012178647578634072,0
183,0.007319999999999993,5.000378781950543,-0.025180289830972882,0.009923642040949594,0
184,0.007360000000000033,5.000049991798719,-0.023536340738185738,0.00832619808727178,0
185,0.007400000000000073,4.99972120164681,-0.02090602218305261,0.005742366352370326,0
186,0.007440000000000113,5.000378781950543,-0.01991965272276132,0.004802465122307323,0
187,0.007479999999999931,4.99972120164681,-0.018933283261316228,0.0038625450300019196,0
188,0.007519999999999971,5.000378781950543,-0.0166317545134594,0.0016074465191539683,0
189,0.007560000000000011,4.99972120164681,-0.01564538504817102,0.0006674878877470578,0
190,0.007600000000000051,4.999392411494816,-0.012686276645394332,-0.002245229355224046,0
191,0.007640000000000091,5.000378781950543,-0.0116999071754995,-0.0031852276102868823,0
192,0.007679999999999909,4.99972120164681,-0.0113711173519455,-0.0034676664348268216,0
193,0.007719999999999949,4.99972120164681,-0.0090695885834889,-0.005722864690875587,0
194,0.007759999999999989,4.99972120164681,-0.007754429284417372,-0.006991714234875164,0
195,0.007800000000000029,4.99972120164681,-0.006768059808773,-0.00793179498345193,0
196,0.00784000000000007,5.000707572102282,-0.005452900506126915,-0.009200686857639473,0
197,0.00788000000000011,4.999392411494816,-0.0031513717215847087,-0.011455969782870647,0
198,0.007919999999999927,5.000049991798719,-0.001178632758433426,-0.01338248472632797,0
199,0.007959999999999967,5.000378781950543,0.0007941062093044515,-0.015309021784387117,0
200,0.008000000000000007,5.000049991798719,0.0024380553525874815,-0.0169067913983309,0
201,0.008040000000000047,5.000049991798719,0.0027668451816259126,-0.01718942434861724,0
202,0.008080000000000087,5.000378781950543,0.004739584158527918,-0.019116029367522824,0
203,0.008119999999999905,5.000378781950543,0.006054743479005864,-0.02038507792084683,0
204,0.008159999999999945,5.000049991798719,0.008027482463535476,-0.022311729599067284,0
205,0.008199999999999985,5.000049991798719,0.007041112970698912,-0.021279296530681696,0
206,0.008240000000000025,4.99972120164681,0.009013851957515154,-0.023205995942534807,0
207,0.008280000000000065,5.000707572102282,0.011315380781244458,-0.0254615094616205,0
208,0.008320000000000105,5.000378781950543,0.014603279111640999,-0.0287034170273318,0
209,0.008359999999999923,5.000049991798719,0.015918438447348998,-0.029972610407854303,0
210,0.008399999999999963,5.000707572102282,0.017233597785083862,-0.03124182886934461,0
211,0.008440000000000003,4.999063621342738,0.01821996728971463,-0.03218228284601014,0
212,0.008480000000000043,4.99972120164681,0.018548757124844717,-0.03246518277068708,0
213,0.008520000000000083,5.001036362253937,0.018877546960101396,-0.03274810858212737,0
214,0.008559999999999901,5.000378781950543,0.020521496138282788,-0.03434621989214311,0
215,0.008599999999999941,4.99972120164681,0.02315181482994949,-0.036930727140195324,0
216,0.008639999999999981,5.000049991798719,0.025782133529704057,-0.03951526108967106,0
217,0.008680000000000021,5.000378781950543,0.025124553854007567,-0.0388119236256972,0
218,0.008720000000000061,4.999392411494816,0.027426082721154613,-0.041067721935112864,0
219,0.008760000000000101,5.000707572102282,0.029070031915759978,-0.04266596807095341,0
220,0.008799999999999919,5.000378781950543,0.031042770953448276,-0.04459303181713756,0
221,0.008839999999999959,4.99972120164681,0.033015509995673945,-0.04652012360328474,0
222,0.008879999999999999,4.99972120164681,0.03433066935967702,-0.04778966401466808,0
223,0.008920000000000039,5.000378781950543,0.037618567778495635,-0.05103197205222426,0
224,0.008960000000000079,4.99972120164681,0.04090646620989019,-0.05427430894147524,0
225,0.008999999999999897,5.000049991798719,0.04320799511934159,-0.05653030541552391,0
226,0.009039999999999937,5.000049991798719,0.04682468341804723,-0.06010149065304733,0
227,0.009079999999999977,5.000049991798719,0.04846863264974746,-0.06169996646512088,0
228,0.009120000000000017,5.000378781950543,0.05044137173192248,-0.0636272620364122,0
229,0.009160000000000057,5.000378781950543,0.05307169051516736,-0.06621216748455379,0
230,0.009200000000000097,5.000378781950543,0.05471563975876172,-0.06781073383570999,0
231,0.009239999999999915,4.99972120164681,0.05866111795613836,-0.07171085985004304,0
232,0.009279999999999955,5.000378781950543,0.06162022661597208,-0.07462464730279923,0
233,0.009319999999999995,5.000378781950543,0.06293538602358648,-0.07589451674571297,0
234,0.009360000000000035,4.99972120164681,0.06359296572814185,-0.07650683799419201,0
235,0.009400000000000075,4.99972120164681,0.06392175558060653,-0.07679040116528627,0
236,0.009439999999999893,5.000049991798719,0.06425054543319586,-0.07707399637712405,0
237,0.009479999999999933,4.99972120164681,0.06326417587580183,-0.07604246448533927,0
238,0.009519999999999973,5.000049991798719,0.061291436764380286,-0.07402459561145583,0
239,0.009560000000000013,5.000049991798719,0.060962646912913254,-0.07365070883484745,0
240,0.009600000000000053,5.000378781950543,0.05767474840510757,-0.07031774650443381,0
241,0.009640000000000093,4.99972120164681,0.05438684990979273,-0.06698481755407572,0
242,0.009679999999999911,5.000049991798719,0.051098951426982675,-0.06365192224863436,0
243,0.009719999999999951,5.000049991798719,0.045838313880531376,-0.05834632177662444,0
244,0.009759999999999991,4.99972120164681,0.04123525605372079,-0.05369833518579904,0
245,0.009800000000000031,4.99972120164681,0.03696098809372539,-0.04937917288761155,0
246,0.009840000000000071,5.000707572102282,0.033673089677423634,-0.04604641482302456,0
247,0.009880000000000111,4.99972120164681,0.029070031915759978,-0.04139853236686922,0
248,0.009919999999999929,5.000378781950543,0.024466974178816228,-0.03675068515291378,0
249,0.009959999999999969,5.000049991798719,0.020521496138282788,-0.032760453116332154,0
250,0.010000000000000009,4.999392411494816,0.017233597785083862,-0.029427836511326487,0
251,0.010040000000000049,5.000049991798719,0.012301750279031881,-0.024451306760778828,0
252,0.010080000000000089,4.99972120164681,0.00506837398845672,-0.017173284495877707,0
253,0.010119999999999907,5.000049991798719,0.006712323140007484,-0.018772624205917323,0
254,0.010159999999999947,5.000049991798719,0.0024380553525874815,-0.014453783772229983,0
255,0.010199999999999987,5.000049991798719,-0.0005210531030302584,-0.011450139727798944,0
256,0.010240000000000027,5.000049991798719,-0.00348016154833046,-0.008446533013128293,0
257,0.010280000000000067,5.000049991798719,-0.006439269983302923,-0.0054429638899929685,0
258,0.010320000000000107,5.000378781950543,-0.008412008934208556,-0.003425802093670058,0
259,0.010359999999999925,4.99972120164681,-0.00939837840793746,-0.0023950478785780254,0
260,0.010399999999999965,5.000378781950543,-0.0113711173519455,-0.000377962558337502,0
261,0.010440000000000005,5.000049991798719,-0.014330225759327644,0.0026254535993047194,0
262,0.010480000000000045,5.000049991798719,-0.0166317545134594,0.00497125121711978,0
263,0.010520000000000085,5.000378781950543,-0.01630296469182467,0.004686691112227269,0
264,0.010559999999999903,5.000378781950543,-0.01597417487006185,0.004402091600143962,0
265,0.010599999999999943,5.000707572102282,-0.017618123977595282,0.006090191350417954,0
266,0.010639999999999983,5.000378781950543,-0.017618123977595282,0.006134302066591334,0
267,0.010680000000000023,5.000049991798719,-0.01926207308192608,0.007822321701150776,0
268,0.010720000000000063,5.000049991798719,-0.01696054433496612,0.005564823039350495,0
269,0.010760000000000103,4.99972120164681,-0.01696054433496612,0.0056088124205729345,0
270,0.01079999999999992,5.000707572102282,-0.017618123977595282,0.006310340481877656,0
271,0.01083999999999996,4.99972120164681,-0.017618123977595282,0.006354247679657962,0
272,0.01088,5.000049991798719,-0.017618123977595282,0.006398113398458558,0
273,0.01092000000000004,5.000049991798719,-0.01860449344057817,0.007428306843444428,0
274,0.01096000000000008,4.99972120164681,-0.018275703619711994,0.007143299010234917,0
275,0.010999999999999899,4.999392411494816,-0.0166317545134594,0.005543089640015813,0
276,0.011039999999999939,4.99972120164681,-0.01696054433496612,0.005915576688930529,0
277,0.011079999999999979,5.000707572102282,-0.01597417487006185,0.00497286168608358,0
278,0.011120000000000019,4.999392411494816,-0.014987805404005308,0.004030103660288331,0
279,0.011160000000000059,5.000049991798719,-0.014001435936796827,0.003087302355382215,0
280,0.011200000000000099,5.000378781950543,-0.012686276645394332,0.0018156676924453437,0
281,0.011239999999999917,5.000049991798719,-0.011042327528263687,0.0002151994143534978,0
282,0.011279999999999957,5.000049991798719,-0.009727168232258263,-0.0010565230873396904,0
283,0.011319999999999997,5.000378781950543,-0.00808321910937683,-0.0026570797156421997,0
284,0.011360000000000037,5.000378781950543,-0.007096849634115457,-0.003600101250769078,0
285,0.011400000000000077,5.000378781950543,-0.006439269983302923,-0.004214377770304402,0
286,0.011439999999999895,5.000378781950543,-0.006110480157705198,-0.004499909527594138,0
287,0.011479999999999935,4.99972120164681,-0.006768059808773,-0.0037991171249959557,0
288,0.011519999999999975,5.000049991798719,-0.004137741201439435,-0.00638626855107894,0
289,0.011560000000000015,5.000378781950543,-0.004137741201439435,-0.006343147193301547,0
290,0.011600000000000055,4.999392411494816,-0.003808951374948702,-0.006628861738370009,0
291,0.011640000000000095,5.000049991798719,-0.004137741201439435,-0.006257042959379979,0
292,0.011679999999999913,5.000378781950543,-0.005124110680146385,-0.00522769110934785,0
293,0.011719999999999953,5.000049991798719,-0.0028225818947114484,-0.007486284356563547,0
294,0.011759999999999993,5.000049991798719,-0.0015074225859438989,-0.008758555211827695,0
295,0.011800000000000033,5.000049991798719,-0.0008498429307955274,-0.009373293749473833,0
296,0.011840000000000073,5.000049991798719,0.00013652655288240445,-0.010316869702608832,0
297,0.011880000000000113,5.000707572102282,0.00013652655288240445,-0.010274124009653506,0
298,0.01191999999999993,5.000049991798719,-0.0018362124133269458,-0.008258687438372313,0
299,0.01195999999999997,5.000378781950543,-0.00019226327513760522,-0.009859987309334128,0
300,0.01200000000000001,5.000049991798719,0.00013652655288240445,-0.01014617645759413,0
301,0.01204000000000005,5.000049991798719,0.001780475694892425,-0.011747573756594602,0
302,0.01208000000000009,5.000378781950543,0.0014516858662357995,-0.011376281170618965,0
303,0.012119999999999909,5.000707572102282,0.0014516858662357995,-0.011333827747585089,0
304,0.012159999999999949,5.000378781950543,0.003424424840084442,-0.013264162880931508,0
305,0.012199999999999989,4.99972120164681,0.004082004499051814,-0.013879388529824161,0
306,0.012240000000000029,5.000378781950543,0.0030956350107915753,-0.01285071510945928,0
307,0.012280000000000069,5.000049991798719,0.004739584158527918,-0.01445241065024779,0
308,0.012320000000000109,5.000049991798719,0.003424424840084442,-0.013095048296841588,0
309,0.012359999999999927,5.000707572102282,0.003753214669504526,-0.01338168590975133,0
310,0.012399999999999967,4.99972120164681,0.003753214669504526,-0.013339584757797026,0
311,0.012440000000000007,5.000378781950543,0.003424424840084442,-0.01296874508671611,0
312,0.012480000000000047,5.000049991798719,0.00506837398845672,-0.01457069594908966,0
313,0.012520000000000087,4.999392411494816,0.0030956350107915753,-0.012556010486085144,0
314,0.012559999999999905,5.000707572102282,0.00013652655288240445,-0.009555007588119238,0
315,0.012599999999999945,4.999063621342738,0.0024380553525874815,-0.01181469423729697,0
316,0.012639999999999985,5.000707572102282,0.001780475694892425,-0.011115324962471619,0
317,0.012680000000000025,5.001693942556992,0.0027668451816259126,-0.01205995760895784,0
318,0.012720000000000065,4.999392411494816,0.0027668451816259126,-0.012018273788695334,0
319,0.012760000000000105,5.001693942556992,0.004082004499051814,-0.013291802548558405,0
320,0.012799999999999923,4.997419670581074,0.0014516858662357995,-0.010619906863204777,0
321,0.012839999999999963,5.001036362253937,0.0027668451816259126,-0.01189354287301608,0
322,0.012880000000000003,4.999392411494816,0.0027668451816259126,-0.011852073555935164,0
323,0.012920000000000043,5.002680313010939,0.005397163818512657,-0.014440977105380887,0
324,0.012960000000000083,5.000049991798719,0.001780475694892425,-0.01078292836470188,0
325,0.0129999999999999,5.000378781950543,0.004410794328726292,-0.013371941092199354,0
326,0.01303999999999994,5.001036362253937,0.00506837398845672,-0.013988269796251167,0
327,0.01307999999999998,5.003009103162085,0.001122896037706475,-0.010001596080008193,0
328,0.01312000000000002,5.001036362253937,0.006712323140007484,-0.015549882846120638,0
329,0.01316000000000006,5.000049991798719,0.006712323140007484,-0.015508798177942176,0
330,0.0132000000000001,5.001036362253937,0.008027482463535476,-0.01678292873959282,0
331,0.013239999999999919,5.000707572102282,0.0076986926324629085,-0.016413166290817606,0
332,0.013279999999999959,4.99972120164681,0.008356272294735026,-0.0170298297170154,0
333,0.013319999999999999,5.000378781950543,0.006383533309443135,-0.015016231114308679,0
334,0.013360000000000039,5.000049991798719,0.008356272294735026,-0.01694816733745138,0
335,0.013400000000000079,5.000049991798719,0.007369902801517392,-0.015921052173528814,0
336,0.013439999999999896,5.000049991798719,0.008027482463535476,-0.016537943492034746,0
337,0.013479999999999936,5.000378781950543,0.0076986926324629085,-0.016168522879958732,0
338,0.013519999999999976,5.000049991798719,0.007369902801517392,-0.01579916006539931,0
339,0.013560000000000016,5.000707572102282,0.0076986926324629085,-0.016087434944563668,0
340,0.013600000000000056,5.000378781950543,0.006054743479005864,-0.014403029105161287,0
341,0.013640000000000096,5.000049991798719,0.007041112970698912,-0.015349000410305244,0
342,0.013679999999999914,5.000378781950543,0.00506837398845672,-0.013335921974025472,0
343,0.013719999999999954,5.000049991798719,0.004410794328726292,-0.012638061825436543,0
344,0.013759999999999994,5.000707572102282,0.005397163818512657,-0.013584210023760875,0
345,0.013800000000000034,5.000707572102282,0.004739584158527918,-0.012886468501475264,0
346,0.013840000000000074,5.000049991798719,0.005725953648695714,-0.01383273578981287,0
347,0.013879999999999892,5.000378781950543,0.00506837398845672,-0.013135113819066244,0
348,0.013919999999999932,5.000049991798719,0.004410794328726292,-0.012437551970542476,0
349,0.013959999999999972,4.99972120164681,0.0030956350107915753,-0.011082470815457813,0
350,0.014000000000000012,5.000378781950543,0.004082004499051814,-0.012028979047675465,0
351,0.014040000000000052,5.000707572102282,0.00506837398845672,-0.012975548091141518,0
352,0.014080000000000092,5.000707572102282,0.005397163818512657,-0.013264598513888656,0
353,0.01411999999999991,5.000049991798719,0.00506837398845672,-0.012896130543207757,0
354,0.01415999999999995,5.000707572102282,0.005397163818512657,-0.013185303726901342,0
355,0.01419999999999999,4.99972120164681,0.005725953648695714,-0.013474538632085946,0
356,0.01424000000000003,4.999392411494816,0.006383533309443135,-0.014092625315820166,0
357,0.01428000000000007,5.000049991798719,0.006054743479005864,-0.013724404682493906,0
358,0.01432000000000011,5.000049991798719,0.006712323140007484,-0.014342615940384872,0
359,0.014359999999999928,5.000378781950543,0.005397163818512657,-0.01298815084072458,0
360,0.014399999999999968,5.000049991798719,0.006712323140007484,-0.014264067233676257,0
361,0.014440000000000008,5.000378781950543,0.007369902801517392,-0.014882467040450278,0
362,0.014480000000000048,4.99972120164681,0.006712323140007484,-0.014185770821702094,0
363,0.014520000000000088,4.999392411494816,0.0076986926324629085,-0.015133087277610166,0
364,0.014559999999999906,4.99972120164681,0.007041112970698912,-0.014436518322683601,0
365,0.014599999999999946,5.000378781950543,0.005725953648695714,-0.013082433673094607,0
366,0.014639999999999986,5.000378781950543,0.006054743479005864,-0.013372362363083465,0
367,0.014680000000000026,5.000378781950543,0.006712323140007484,-0.013991145292209347,0
368,0.014720000000000066,4.99972120164681,0.005725953648695714,-0.012966043698139362,0
369,0.014760000000000106,5.000049991798719,0.005725953648695714,-0.012927376444659158,0
370,0.014799999999999924,5.000378781950543,0.003424424840084442,-0.01058724545149228,0
371,0.014839999999999964,5.000378781950543,0.003753214669504526,-0.010877498384411655,0
372,0.014880000000000004,4.99972120164681,0.0024380553525874815,-0.009523867677660414,0
373,0.014920000000000044,5.000049991798719,0.0014516858662357995,-0.00849909252623156,0
374,0.014960000000000084,5.000049991798719,0.0014516858662357995,-0.008460752803478452,0
375,0.014999999999999902,5.000707572102282,-0.00019226327513760522,-0.006778530098717185,0
376,0.015039999999999942,5.000378781950543,-0.0008498429307955274,-0.00608274325554958,0
377,0.015079999999999982,5.000049991798719,-0.0005210531030302584,-0.006373392487665677,0
378,0.015120000000000022,5.000378781950543,-0.0008498429307955274,-0.006006528871561117,0
379,0.015160000000000062,5.000378781950543,-0.0015074225859438989,-0.00531094245029738,0
380,0.015200000000000102,4.99972120164681,-0.0008498429307955274,-0.0059305825759306645,0
381,0.01523999999999992,5.000049991798719,-0.0015074225859438989,-0.005235130841703805,0
382,0.01527999999999996,5.000378781950543,-0.0015074225859438989,-0.005197326426355843,0
383,0.01532,4.999392411494816,-0.001178632758433426,-0.005488379714998085,0
384,0.01536000000000004,5.000378781950543,-0.0018362124133269458,-0.004793131609918202,0
385,0.01540000000000008,5.000378781950543,-0.001178632758433426,-0.00541311111495992,0
386,0.015439999999999898,4.99972120164681,-0.0015074225859438989,-0.005046789649033144,0
387,0.015479999999999938,5.000378781950543,-0.0008498429307955274,-0.005666906387747554,0
388,0.015519999999999978,5.000049991798719,-0.0005210531030302584,-0.005958302231051659,0
389,0.015560000000000018,5.000378781950543,-0.0005210531030302584,-0.005920977387995019,0
390,0.015600000000000058,5.000378781950543,0.0007941062093044515,-0.007198881207548299,0
391,0.0156400000000001,5.000378781950543,-0.0005210531030302584,-0.005846535961014691,0
392,0.015679999999999916,5.000049991798719,-0.0008498429307955274,-0.0054806299653747375,0
393,0.015719999999999956,5.000049991798719,-0.00019226327513760522,-0.006101163426655938,0
394,0.015759999999999996,4.99972120164681,0.00013652655288240445,-0.006392977240400718,0
395,0.015800000000000036,5.000378781950543,0.0007941062093044515,-0.0070136512686800444,0
396,0.015840000000000076,5.000049991798719,0.001780475694892425,-0.007963185717714037,0
397,0.015879999999999894,4.999392411494816,0.001780475694892425,-0.007926421477627964,0
398,0.015919999999999934,5.000049991798719,0.0014516858662357995,-0.0075609384096530004,0
399,0.015959999999999974,5.000049991798719,0.0021092655236763236,-0.008181896032261158,0
400,0.016000000000000014,5.000378781950543,0.0007941062093044515,-0.006830186090677251,0
401,0.016040000000000054,4.99972120164681,0.0021092655236763236,-0.008108866388005629,0
402,0.016080000000000094,5.000707572102282,0.0024380553525874815,-0.00840124901200166,0
403,0.016119999999999912,4.99972120164681,0.0014516858662357995,-0.007378544334232434,0
404,0.016159999999999952,4.999392411494816,0.0027668451816259126,-0.008657440672478946,0
405,0.016199999999999992,5.000049991798719,0.0027668451816259126,-0.008621250109790538,0
406,0.016240000000000032,4.99972120164681,0.0027668451816259126,-0.008585132161141252,0
407,0.016280000000000072,5.000707572102282,0.0027668451816259126,-0.008549087025515439,0
408,0.016320000000000112,5.000049991798719,0.003424424840084442,-0.009170694559754207,0
409,0.01635999999999993,5.000049991798719,0.004410794328726292,-0.010121165133360898,0
410,0.01639999999999997,4.99972120164681,0.004082004499051814,-0.009756549795008168,0
411,0.01644000000000001,5.000049991798719,0.004410794328726292,-0.010049587718925135,0
412,0.01648000000000005,4.99972120164681,0.006054743479005864,-0.011657858762321102,0
413,0.01652000000000009,4.99972120164681,0.006054743479005864,-0.011622254649651666,0
414,0.016559999999999908,5.000378781950543,0.006383533309443135,-0.011915514556358808,0
415,0.016599999999999948,4.99972120164681,0.0076986926324629085,-0.013195218338695636,0
416,0.016639999999999988,5.000049991798719,0.0076986926324629085,-0.013159837374548311,0
417,0.016680000000000028,5.000049991798719,0.0076986926324629085,-0.013124531179803452,0
418,0.016720000000000068,5.000049991798719,0.008356272294735026,-0.013746879608976238,0
419,0.016760000000000108,5.000049991798719,0.007369902801517392,-0.01272535403592193,0
420,0.016799999999999926,5.000378781950543,0.008027482463535476,-0.01334785296235501,0
421,0.016839999999999966,5.000707572102282,0.0076986926324629085,-0.012984057930307876,0
422,0.016880000000000006,5.000049991798719,0.009342641789095676,-0.014593077610302934,0
423,0.016920000000000046,4.99972120164681,0.008356272294735026,-0.013571854552733374,0
424,0.016960000000000086,4.99972120164681,0.008027482463535476,-0.01320828726020902,0
425,0.016999999999999904,5.000378781950543,0.008356272294735026,-0.013502375919784397,0
426,0.017039999999999944,4.99972120164681,0.008027482463535476,-0.013138961393836917,0
427,0.017079999999999984,5.000378781950543,0.0076986926324629085,-0.012775623531425234,0
428,0.017120000000000024,4.99972120164681,0.008027482463535476,-0.013069942180454928,0
429,0.017160000000000064,5.000049991798719,0.008356272294735026,-0.013364337864148024,0
430,0.017200000000000104,5.000049991798719,0.009342641789095676,-0.014316390430129472,0
431,0.017239999999999922,5.000049991798719,0.010000221452637598,-0.014939730568358824,0
432,0.017279999999999962,5.000049991798719,0.010000221452637598,-0.01490556862939873,0
433,0.017320000000000002,5.000049991798719,0.009013851957515154,-0.013885114964298938,0
434,0.017360000000000042,5.000378781950543,0.008685062126061585,-0.013522318913823356,0
435,0.017400000000000082,5.000049991798719,0.009671431620803153,-0.014474760321811098,0
436,0.0174399999999999,4.99972120164681,0.009671431620803153,-0.014440910547976525,0
437,0.01747999999999994,5.000378781950543,0.011972960446309217,-0.016708668092554495,0
438,0.01751999999999998,5.000378781950543,0.011644170613713423,-0.01634618565125849,0
439,0.01756000000000002,5.000049991798719,0.011315380781244458,-0.015983782060970765,0
440,0.01760000000000006,5.000049991798719,0.011644170613713423,-0.01627903716448609,0
441,0.0176400000000001,4.999392411494816,0.011315380781244458,-0.015916791809240365,0
442,0.017679999999999918,5.000049991798719,0.011315380781244458,-0.01588341566927831,0
443,0.017719999999999958,5.000049991798719,0.01065780111668721,-0.015192539423535593,0
444,0.017759999999999998,5.000707572102282,0.011315380781244458,-0.01581690224096787,0
445,0.017800000000000038,4.99972120164681,0.010986590948902406,-0.015454975470165312,0
446,0.017840000000000078,5.000049991798719,0.01065780111668721,-0.015093128782076049,0
447,0.017879999999999896,4.999063621342738,0.011972960446309217,-0.016375311511648446,0
448,0.017919999999999936,5.000378781950543,0.011315380781244458,-0.015684835674910642,0
449,0.017959999999999976,5.000378781950543,0.010986590948902406,-0.015323230271136301,0
450,0.018000000000000016,5.000707572102282,0.011972960446309217,-0.016276864968525886,0
451,0.018040000000000056,5.000378781950543,0.011972960446309217,-0.016244211110406213,0
452,0.018080000000000096,4.99972120164681,0.012630540111881347,-0.016869218029544913,0
453,0.018119999999999914,5.000049991798719,0.01328811977796078,-0.0174943062299701,0
454,0.018159999999999954,5.000707572102282,0.012301750279031881,-0.016475526714561345,0
455,0.018199999999999994,5.000049991798719,0.012301750279031881,-0.016443198314951425,0
456,0.018240000000000034,4.99972120164681,0.011644170613713423,-0.01575337203388691,0
457,0.018280000000000074,5.000378781950543,0.011644170613713423,-0.01572120736829508,0
458,0.018320000000000114,5.000049991798719,0.012301750279031881,-0.0163467044837608,0
459,0.018359999999999932,5.000049991798719,0.010986590948902406,-0.014999544884395099,0
460,0.018399999999999972,5.000378781950543,0.010986590948902406,-0.014967627059943426,0
461,0.018440000000000012,4.999063621342738,0.01032901128459894,-0.014278212179429577,0
462,0.018480000000000052,5.000378781950543,0.008685062126061585,-0.012602510575666703,0
463,0.018520000000000092,4.99972120164681,0.008685062126061585,-0.01257084106345456,0
464,0.01855999999999991,4.99972120164681,0.008685062126061585,-0.01253925464556738,0
465,0.01859999999999995,4.99972120164681,0.009013851957515154,-0.012836541314051517,0
466,0.01863999999999999,5.000049991798719,0.010000221452637598,-0.013791491060994386,0
467,0.01868000000000003,5.000378781950543,0.009342641789095676,-0.013102575223212377,0
468,0.01872000000000007,5.000378781950543,0.009671431620803153,-0.013400112613044551,0
469,0.01876000000000011,5.000049991798719,0.009671431620803153,-0.01336894406123312,0
470,0.018799999999999928,4.99972120164681,0.009671431620803153,-0.013337859556456572,0
471,0.018839999999999968,5.000049991798719,0.011315380781244458,-0.014950808415397317,0
472,0.018880000000000008,5.000049991798719,0.01032901128459894,-0.013933522976036627,0
473,0.018920000000000048,4.99972120164681,0.01065780111668721,-0.014231481378970963,0
474,0.018960000000000088,4.99972120164681,0.011315380781244458,-0.014858314281976048,0
475,0.018999999999999906,4.999392411494816,0.011972960446309217,-0.015485232006393816,0
476,0.019039999999999946,5.000049991798719,0.011644170613713423,-0.015125865206620695,0
477,0.019079999999999986,5.000049991798719,0.01328811977796078,-0.016739322528984173,0
478,0.019120000000000026,4.999392411494816,0.013945699444547363,-0.017366495630061603,0
479,0.019160000000000066,5.000049991798719,0.015260858779241576,-0.018651333825958398,0
480,0.019200000000000106,4.99972120164681,0.015918438447348998,-0.019278677931571116,0
481,0.019239999999999924,5.000707572102282,0.017233597785083862,-0.020563687431957193,0
482,0.019279999999999964,5.000378781950543,0.01953512663099438,-0.022835152313758475,0
483,0.019320000000000004,5.000378781950543,0.019863916466630674,-0.023133964205867392,0
484,0.019360000000000044,5.000049991798719,0.019863916466630674,-0.023104072429511187,0
485,0.019400000000000084,4.999392411494816,0.019206336795484613,-0.022416687295014667,0
486,0.019439999999999902,4.99972120164681,0.01756238761983417,-0.020743019114097642,0
487,0.019479999999999942,4.99972120164681,0.016247228281592724,-0.019398227372993473,0
488,0.019519999999999982,5.001036362253937,0.01328811977796078,-0.016409573212462832,0
489,0.019560000000000022,4.99972120164681,0.008356272294735026,-0.011448266961101045,0
490,0.019600000000000062,4.99972120164681,0.00506837398845672,-0.00813099691748478,0
491,0.019640000000000102,5.000378781950543,0.0004653163810297567,-0.003498654744788419,0
492,0.01967999999999992,4.99972120164681,-0.0047953208540382625,0.0017911797429766355,0
493,0.01971999999999996,5.000049991798719,-0.00939837840793746,0.0064233470972651086,0
494,0.01976,4.99972120164681,-0.013672646114138112,0.010726637012581898,0
495,0.01980000000000004,5.000378781950543,-0.01860449344057817,0.015687418818671285,0
496,0.01984000000000008,4.99972120164681,-0.022549971280973066,0.019661743271828368,0
497,0.019879999999999898,5.001036362253937,-0.026166659285104213,0.023307189885189185,0
498,0.019919999999999938,4.99972120164681,-0.028796977823800904,0.025966178893714317,0
499,0.019959999999999978,5.000707572102282,-0.03142729635426868,0.028625079619518864,0
500,0.020000000000000018,4.999063621342738,-0.03603035376276496,0.03325663081454969,0
501,0.020040000000000058,4.99972120164681,-0.04030462133375036,0.03755930362973835,0
502,0.020080000000000098,5.000049991798719,-0.04326372963934923,0.0405467285044631,0
503,0.020119999999999916,5.000049991798719,-0.04589404812443025,0.04320527475163105,0
504,0.020159999999999956,4.999063621342738,-0.0491819462191435,0.04652131167021696,0
505,0.020199999999999996,5.000378781950543,-0.053456213722917104,0.050823628929261414,0
506,0.020240000000000036,5.000378781950543,-0.057401691399265334,0.05479706716268044,0
507,0.020280000000000076,4.99972120164681,-0.06233353846841526,0.0597567854618937,0
508,0.020319999999999894,5.000049991798719,-0.06890933451510713,0.06636036328362621,0
509,0.020359999999999934,4.99972120164681,-0.07581392030804664,0.07329264126936239,0
510,0.020399999999999974,5.000378781950543,-0.08173213665616903,0.0792384601016117,0
511,0.020440000000000014,5.000049991798719,-0.08797914275542355,0.08551297885069471,0
512,0.020480000000000054,4.99972120164681,-0.09587009776051285,0.09343135654648396,0
513,0.020520000000000094,5.000707572102282,-0.10343226290269213,0.10102085429620435,0
514,0.02055999999999991,5.000049991798719,-0.11198079732731327,0.1095966311219789,0
515,0.02059999999999995,5.000049991798719,-0.11855659297780442,0.11619957884480978,0
516,0.02063999999999999,4.99972120164681,-0.12250207034268835,0.12017211783159779,0
517,0.02068000000000003,4.99972120164681,-0.12644754768848476,0.12414456622804634,0
518,0.02072000000000007,5.000378781950543,-0.12644754768848476,0.12417144658743709,0
519,0.02076000000000011,4.99972120164681,-0.12480359879672413,0.12255428724460476,0
520,0.02079999999999993,5.000378781950543,-0.1182278031965366,0.11600519026449155,0
521,0.02083999999999997,5.000707572102282,-0.1116520075434007,0.10945600218499596,0
522,0.02088000000000001,4.999392411494816,-0.10408984247698179,0.10192035352901642,0
523,0.02092000000000005,5.000378781950543,-0.09389735901632983,0.09175429519965071,0
524,0.02096000000000009,5.000707572102282,-0.0820609264520449,0.07994419637236239,0
525,0.020999999999999908,4.99972120164681,-0.0715396529191989,0.06944916506790418,0
526,0.021039999999999948,5.001693942556992,-0.059045640425562415,0.05698130318054599,0
527,0.021079999999999988,4.999392411494816,-0.05148347487774181,0.04944519650421374,0
528,0.021120000000000028,4.999392411494816,-0.042277360205311795,0.040265048856623124,0
529,0.021160000000000068,5.000378781950543,-0.035701563948709644,0.03371512766717547,0
530,0.021200000000000108,5.001036362253937,-0.035372774134525484,0.03341212085224925,0
531,0.021239999999999926,5.001036362253937,-0.030112137090063842,0.02817717462976297,0
532,0.021279999999999966,5.001036362253937,-0.03044092690630805,0.02853156298214094,0
533,0.021320000000000006,4.999392411494816,-0.0340576148765004,0.03217375709489473,0
534,0.021360000000000046,5.004653053916539,-0.03241366580107112,0.030555221661553444,0
535,0.021400000000000086,5.000707572102282,-0.030112137090063842,0.028279013986090416,0
536,0.021439999999999904,5.001693942556992,-0.029125767640559533,0.02731787286034843,0
537,0.021479999999999944,4.998077250885994,-0.028139398189897927,0.02635663891726242,0
538,0.021519999999999984,5.001036362253937,-0.024522710194243194,0.022764993509426425,0
539,0.021560000000000024,5.001036362253937,-0.01926207308192608,0.017529305962436872,0
540,0.021600000000000064,5.000707572102282,-0.012028696998925656,0.01032078632037563,0
541,0.021640000000000104,5.000378781950543,-0.005781690331979852,0.004098542868921761,0
542,0.02167999999999992,5.000049991798719,0.0021092655236763236,-0.0037677430969090707,0
543,0.02171999999999996,5.000049991798719,0.008027482463535476,-0.009661383571988107,0
544,0.02176,5.000049991798719,0.016576018115963126,-0.01818543628321761,0
545,0.02180000000000004,5.000049991798719,0.022494235156274286,-0.02407926400360626,0
546,0.02184000000000008,4.99972120164681,0.027754872559823354,-0.02931560580535791,0
547,0.0218799999999999,4.99972120164681,0.03202914047399413,-0.03356567193186047,0
548,0.02191999999999994,5.000378781950543,0.0353170388840013,-0.03682946246348618,0
549,0.02195999999999998,5.000049991798719,0.036303408409458296,-0.03779181811415838,0
550,0.02200000000000002,4.99972120164681,0.034988249042434,-0.03645273896940708,0
551,0.02204000000000006,5.000378781950543,0.029070031915759978,-0.030510696254675073,0
552,0.0220800000000001,5.000049991798719,0.021836655483104705,-0.023253588515391097,0
553,0.022119999999999918,4.999392411494816,0.013616909611190692,-0.015010205709185952,0
554,0.022159999999999958,4.99972120164681,0.0021092655236763236,-0.0034790191497732527,0
555,0.022199999999999998,4.99972120164681,-0.008412008934208556,0.007065703228416077,0
556,0.022240000000000038,5.000378781950543,-0.020248442542986647,0.01892549011755885,0
557,0.022280000000000078,5.000049991798719,-0.03142729635426868,0.03012760248177615,0
558,0.022319999999999895,5.000707572102282,-0.04326372963934923,0.04198719950573019,0
559,0.022359999999999935,5.000378781950543,-0.053456213722917104,0.05220275242833569,0
560,0.022399999999999975,5.000049991798719,-0.0629911180754263,0.061760630635131944,0
561,0.022440000000000015,4.99972120164681,-0.07022449371819571,0.0690168850633834,0
562,0.022480000000000055,5.000049991798719,-0.07614271010627514,0.0749578850849467,0
563,0.022520000000000095,5.000707572102282,-0.08074576726775658,0.07958363064558302,0
564,0.022559999999999913,5.000378781950543,-0.0840336652245519,0.08289412168573682,0
565,0.022599999999999953,4.99972120164681,-0.08370487542946127,0.08258782957760534,0
566,0.022639999999999993,5.000049991798719,-0.08140334686016236,0.08030870321912884,0
567,0.022680000000000033,4.99972120164681,-0.07581392030804664,0.07474158332282765,0
568,0.022720000000000073,5.000049991798719,-0.06792296511142272,0.06687283914900662,0
569,0.022760000000000113,4.99972120164681,-0.057401691399265334,0.056373680749504815,0
570,0.02279999999999993,5.000049991798719,-0.0445788888829237,0.04357289775940491,0
571,0.02283999999999997,5.000378781950543,-0.029454557457189598,0.02847048999810214,0
572,0.02288000000000001,4.99972120164681,-0.014330225759327644,0.01336798602833553,0
573,0.02292000000000005,5.000378781950543,0.0027668451816259126,-0.0037073531945124912,0
574,0.02296000000000009,5.000378781950543,0.020521496138282788,-0.021440368515834796,0
575,0.02299999999999991,5.000378781950543,0.0392625169926218,-0.0401598498895178,0
576,0.02303999999999995,5.000049991798719,0.05438684990979273,-0.05526273955174445,0
577,0.02307999999999999,5.000049991798719,0.0714839222216675,-0.07233846490454453,0
578,0.02312000000000003,5.000378781950543,0.08463551653658133,-0.08546880862553499,0
579,0.02316000000000007,5.000049991798719,0.095485581995499,-0.09629771992408534,0
580,0.02320000000000011,5.000378781950543,0.10469169824778124,-0.1054827785170831,0
581,0.023239999999999927,4.999392411494816,0.10830838680184553,-0.10907850597959393,0
582,0.023279999999999967,5.000378781950543,0.11225386524140141,-0.11300311996109601,0
583,0.023320000000000007,5.000049991798719,0.11159628550024885,-0.11232477246027762,0
584,0.023360000000000047,5.000049991798719,0.11028112601941528,-0.1109889419821734,0
585,0.023400000000000087,5.000378781950543,0.10469169824778124,-0.1053789400387893,0
586,0.023439999999999905,4.99972120164681,0.09811590091487153,-0.09878266542189287,0
587,0.023479999999999945,4.99972120164681,0.08759462528475882,-0.08824100945691636,0
588,0.023519999999999985,4.99972120164681,0.0770733497812526,-0.07769945062814464,0
589,0.023560000000000025,5.000049991798719,0.06457933528590981,-0.06518524987672508,0
590,0.023600000000000065,5.000049991798719,0.05142774127470057,-0.052013566737332914,0
591,0.023640000000000105,4.99972120164681,0.036303408409458296,-0.03686924192962032,0
592,0.023679999999999923,5.000378781950543,0.020521496138282788,-0.021067434958618854,0
593,0.023719999999999963,5.000378781950543,0.004739584158527918,-0.005265725577726374,0
594,0.023760000000000003,4.99972120164681,-0.012357486822223915,0.011851045450319193,0
595,0.023800000000000043,5.000378781950543,-0.029783347273691016,0.029296508540969803,0
596,0.023840000000000083,5.000378781950543,-0.04720920736386795,0.04674187380884358,0
597,0.0238799999999999,5.000378781950543,-0.06364869768191721,0.06320077179061714,0
598,0.02391999999999994,5.000049991798719,-0.07844423869021762,0.07801562289707462,0
599,0.02395999999999998,5.000049991798719,-0.09159583047547391,0.09118642716421786,0
600,0.02400000000000002,4.99972120164681,-0.10441863226392899,0.10402834376847954,0
601,0.02404000000000006,5.000049991798719,-0.11329595646164246,0.11292468506700229,0
602,0.0240800000000001,4.99972120164681,-0.12052933166263081,0.12017697960577961,0
603,0.02411999999999992,5.000378781950543,-0.12578996813217858,0.1254564376029678,0
604,0.02415999999999996,5.000049991798719,-0.12710512724426004,0.12679032038630797,0
605,0.0242,5.000049991798719,-0.12546117835382642,0.12516499726541377,0
606,0.02424000000000004,5.000378781950543,-0.12085812144297166,0.1205804681779378,0
607,0.02428000000000008,5.000378781950543,-0.11493990537658023,0.1146806819452201,0
608,0.024319999999999897,5.000049991798719,-0.1100080586218566,0.1097671669918182,0
609,0.024359999999999937,5.000378781950543,-0.1027746833278755,0.10255202542505833,0
610,0.024399999999999977,5.000049991798719,-0.09751404671038476,0.0973095244198389,0
611,0.024440000000000017,5.000049991798719,-0.09159583047547391,0.09140934564229973,0
612,0.024480000000000057,5.000049991798719,-0.0863351937865197,0.08616664821676816,0
613,0.024520000000000097,4.99972120164681,-0.0820609264520449,0.08191022191361821,0
614,0.024559999999999915,5.000049991798719,-0.07680028970234042,0.07666732792589338,0
615,0.024599999999999955,5.000378781950543,-0.0715396529191989,0.07142433559904063,0
616,0.024639999999999995,5.000049991798719,-0.06463506709067811,0.06453729588567433,0
617,0.024680000000000035,5.000707572102282,-0.05510016275699865,0.055019839291474554,0
618,0.024720000000000075,5.000707572102282,-0.04425009907222392,0.04418712493686749,0
619,0.024759999999999893,5.000049991798719,-0.029454557457189598,0.029408834209955347,0
620,0.024799999999999933,5.000378781950543,-0.012028696998925656,0.012000126165938724,0
621,0.024839999999999973,5.000378781950543,0.008027482463535476,-0.008038999387074844,0
622,0.024880000000000013,5.000378781950543,0.031042770953448276,-0.031037332502359884,0
623,0.024920000000000053,5.000049991798719,0.05504442960785576,-0.05502213434607423,0
624,0.024960000000000093,4.99972120164681,0.08036124836247038,-0.08032219488213956,0
625,0.02499999999999991,5.000049991798719,0.10830838680184553,-0.10825267372241247,0
626,0.02503999999999995,5.000378781950543,0.13592673624861432,-0.1358544622159228,0
627,0.02507999999999999,4.99972120164681,0.16321629666371967,-0.16312756034910314,0
628,0.02512000000000003,5.000378781950543,0.19149222760745366,-0.19138712770682775,0
629,0.02516000000000007,4.99972120164681,0.2184529997938034,-0.21833163502675812,0
630,0.02520000000000011,5.000049991798719,0.24607135261281843,-0.24593382172170974,0
631,0.02523999999999993,5.000378781950543,0.27007301704248055,-0.2699194187915215,0
632,0.02527999999999997,5.000707572102282,0.2914443626025587,-0.2912747957769102,0
633,0.02532000000000001,5.000049991798719,0.30854143940060785,-0.3083560028054699,0
634,0.02536000000000005,5.000049991798719,0.3203778773649874,-0.3201766698246895,0
635,0.02540000000000009,5.000378781950543,0.32530972656036417,-0.3250928469174564,0
636,0.025439999999999907,4.999392411494816,0.32432335671924334,-0.32409090383358735,0
637,0.025479999999999947,4.99972120164681,0.3154460281952075,-0.31519810094306744,0
638,0.025519999999999987,4.99972120164681,0.30032169090132177,-0.30005838817445496,0
639,0.025560000000000027,5.000378781950543,0.27829276527707864,-0.27801418598182603,0
640,0.025600000000000067,5.000049991798719,0.2539623107129931,-0.2536685537693698,0
641,0.025640000000000107,4.999392411494816,0.2256863778328696,-0.22537754217365577,0
642,0.025679999999999925,5.000378781950543,0.19412254680997768,-0.19379873137980969,0
643,0.025719999999999965,4.99972120164681,0.16157234721755911,-0.16123365097202041,0
644,0.025760000000000005,4.999063621342738,0.1286933589292962,-0.128339880834008,0
645,0.025800000000000045,5.000049991798719,0.09614316172460258,-0.09577500075431455,0
646,0.025840000000000085,5.000049991798719,0.06457933528590981,-0.06419659042359115,0
647,0.025879999999999903,5.000378781950543,0.037618567778495635,-0.0372213380144258,0
648,0.025919999999999943,5.000378781950543,0.012301750279031881,-0.011890134609891446,0
649,0.025959999999999983,4.99972120164681,-0.00939837840793746,0.009824280979976313,0
650,0.026000000000000023,4.99972120164681,-0.02715302873807933,0.02759311920626238,0
651,0.026040000000000063,5.001036362253937,-0.04129099077011207,0.041745170124012854,0
652,0.026080000000000103,5.000049991798719,-0.05115468506975916,0.051622854296188805,0
653,0.02611999999999992,5.000707572102282,-0.059703220035172325,0.06018528011908958,0
654,0.02615999999999996,5.000378781950543,-0.06364869768191721,0.06414454960733859,0
655,0.0262,5.000049991798719,-0.06463506709067811,0.06514461184158811,0
656,0.02624000000000004,4.99972120164681,-0.06529264669586828,0.06581578525712958,0
657,0.02628000000000008,5.000049991798719,-0.06331990787873677,0.06385654123700032,0
658,0.0263199999999999,4.99972120164681,-0.060689589448612954,0.06123961859322803,0
659,0.02635999999999994,5.000707572102282,-0.058716850620562686,0.05928017654448703,0
660,0.02639999999999998,5.000378781950543,-0.05608653217589139,0.05666305587660116,0
661,0.02644000000000002,5.000049991798719,-0.05279863410837703,0.05338825658877669,0
662,0.02648000000000006,5.000378781950543,-0.0491819462191435,0.04978456848847551,0
663,0.0265200000000001,5.000378781950543,-0.04622283793448369,0.046838361009238313,0
664,0.026559999999999917,5.000049991798719,-0.04392130926139491,0.04454963416621999,0
665,0.026599999999999957,5.000049991798719,-0.04063341114600001,0.04127443891461047,0
666,0.026639999999999997,5.000049991798719,-0.0383318824575425,0.0389855141336298,0
667,0.026680000000000037,5.000378781950543,-0.03603035376276496,0.036696490400906515,0
668,0.026720000000000077,4.999392411494816,-0.033071245431629134,0.03374978809819769,0
669,0.026759999999999895,4.999392411494816,-0.030769716722423582,0.03146056649649663,0
670,0.026799999999999935,4.99972120164681,-0.028468188006913683,0.029171245981182856,0
671,0.026839999999999975,5.000049991798719,-0.024522710194243194,0.025237877475923536,0
672,0.026880000000000015,5.000378781950543,-0.02090602218305261,0.02163319989479178,0
673,0.026920000000000055,5.000378781950543,-0.01597417487006185,0.016713264150849026,0
674,0.026960000000000095,4.99972120164681,-0.0090695885834889,0.00982049058956358,0
675,0.026999999999999913,5.000049991798719,-0.0024937920677107622,0.0032564079734713133,0
676,0.027039999999999953,5.000049991798719,0.005397163818512657,-0.00462293281960054,0
677,0.027079999999999993,5.000378781950543,0.012630540111881347,-0.011844792806376403,0
678,0.027120000000000033,5.000378781950543,0.01756238761983417,-0.016765222773411574,0
679,0.027160000000000073,5.000378781950543,0.025782133529704057,-0.0249736498862476,0
680,0.027200000000000113,5.000378781950543,0.03400187951848738,-0.03318217579918186,0
681,0.02723999999999993,5.000049991798719,0.03959130683582415,-0.03876048173824803,0
682,0.02727999999999997,5.000049991798719,0.044851944344144246,-0.04401009654136246,0
683,0.02732000000000001,5.000049991798719,0.048139842803156765,-0.04728707094281377,0
684,0.02736000000000005,5.000378781950543,0.05142774127470057,-0.05056414397811363,0
685,0.02740000000000009,5.000378781950543,0.05142774127470057,-0.050553417135953196,0
686,0.02743999999999991,5.000378781950543,0.04879742249646346,-0.04791247008149913,0
687,0.02747999999999995,5.000378781950543,0.04846863264974746,-0.04757315049546344,0
688,0.02751999999999999,5.000378781950543,0.044851944344144246,-0.04394603095748586,0
689,0.02756000000000003,5.000378781950543,0.03827614746376892,-0.03735990132082405,0
690,0.02760000000000007,5.000049991798719,0.033015509995673945,-0.03208902954076784,0
691,0.02764000000000011,4.999392411494816,0.02676850304419573,-0.025831886688986054,0
692,0.027679999999999927,4.99972120164681,0.02085028597429857,-0.01990363209687074,0
693,0.027719999999999967,4.99972120164681,0.012630540111881347,-0.011673947055844212,0
694,0.027760000000000007,5.000378781950543,0.010000221452637598,-0.009033787526219458,0
695,0.027800000000000047,5.000049991798719,0.003753214669504526,-0.0027770381446495657,0
696,0.027840000000000087,5.000707572102282,-0.00019226327513760522,0.0011780841636725783,0
697,0.027879999999999905,5.000049991798719,-0.0018362124133269458,0.00283157946887537,0
698,0.027919999999999945,4.99972120164681,-0.0024937920677107622,0.0034986071325988632,0
699,0.027959999999999985,4.99972120164681,-0.0015074225859438989,0.002521587542392817,0
700,0.028000000000000025,5.000378781950543,-0.0005210531030302584,0.001544469874057805,0
701,0.028040000000000065,4.99972120164681,0.004410794328726292,-0.0033782237784042227,0
702,0.028080000000000105,5.000378781950543,0.009671431620803153,-0.00862980528387158,0
703,0.028119999999999923,5.000049991798719,0.015260858779241576,-0.014210274604885845,0
704,0.028159999999999963,5.000049991798719,0.023809394504130166,-0.022749950397135836,0
705,0.028200000000000003,5.000378781950543,0.030713981113518377,-0.02964577493337154,0
706,0.028240000000000043,5.000378781950543,0.039920096679152195,-0.03884322623914022,0
707,0.028280000000000083,5.000049991798719,0.04616710372624461,-0.04508166679255738,0
708,0.0283199999999999,5.000049991798719,0.05438684990979273,-0.05329294420062434,0
709,0.02835999999999994,5.000049991798719,0.06326417587580183,-0.06216189906045273,0
710,0.02839999999999998,5.000378781950543,0.06918239323698341,-0.06807184293496306,0
711,0.02844000000000002,5.000049991798719,0.07510061063847716,-0.07398188441860705,0
712,0.02848000000000006,5.000049991798719,0.07970366864523482,-0.07857686402475211,0
713,0.0285200000000001,5.000378781950543,0.0813476179392533,-0.08021283238291502,0
714,0.02855999999999992,5.000378781950543,0.08627946583988738,-0.08513679675907518,0
715,0.02859999999999996,5.000049991798719,0.08562188611819377,-0.08447143087001935,0
716,0.02864,5.000378781950543,0.08825220500793643,-0.08709406089434754,0
717,0.02868000000000004,5.000049991798719,0.09186889349424851,-0.09070315776113538,0
718,0.02872000000000008,5.000378781950543,0.09088252390559022,-0.08970929374189274,0
719,0.028759999999999897,5.000707572102282,0.09121131376835284,-0.09003068630516833,0
720,0.028799999999999937,5.000378781950543,0.09154010363123893,-0.09035217594093059,0
721,0.028839999999999977,4.99972120164681,0.09121131376835284,-0.09001618286365892,0
722,0.028880000000000017,4.99972120164681,0.09186889349424851,-0.09066665632739208,0
723,0.028920000000000057,5.000378781950543,0.09186889349424851,-0.09065964695604797,0
724,0.028960000000000097,5.000049991798719,0.09219768335738154,-0.09098152427636165,0
725,0.028999999999999915,5.000049991798719,0.09351284281114798,-0.09228986795265151,0
726,0.029039999999999955,5.000049991798719,0.09417042253877159,-0.09294072860407168,0
727,0.029079999999999995,5.000049991798719,0.09482800226688862,-0.09359168589230178,0
728,0.029120000000000035,5.000378781950543,0.0964719515893393,-0.09522910934533915,0
729,0.029160000000000075,5.000378781950543,0.0971295313191825,-0.09588025970951414,0
730,0.029200000000000115,5.000378781950543,0.09943106037751487,-0.09817545583830972,0
731,0.029239999999999933,4.999392411494816,0.09811590091487153,-0.0968540598137631,0
732,0.029279999999999973,5.000049991798719,0.0964719515893393,-0.09520397022457935,0
733,0.029320000000000013,5.000707572102282,0.09844469078034762,-0.09717066537992336,0
734,0.029360000000000053,5.001693942556992,0.09778711104951865,-0.09650713777027055,0
735,0.029400000000000093,5.001036362253937,0.09877348064594688,-0.09748765557268743,0
736,0.02943999999999991,5.001036362253937,0.095485581995499,-0.09419400114013216,0
737,0.02947999999999995,5.001036362253937,0.10041742997579037,-0.0991201892764314,0
738,0.02951999999999999,4.999392411494816,0.10008864010957542,-0.09878583542967154,0
739,0.02956000000000003,5.002680313010939,0.10239016917566456,-0.10108189630311634,0
740,0.02960000000000007,5.000707572102282,0.10403411851227598,-0.10272047315855967,0
741,0.02964000000000011,4.99972120164681,0.10436290837996715,-0.10304398617925771,0
742,0.02967999999999993,4.999392411494816,0.10502048811571825,-0.1036963846240131,0
743,0.02971999999999997,5.003666683464122,0.10929475641007817,-0.10796556710432212,0
744,0.02976000000000001,5.000049991798719,0.11225386524140141,-0.1109196855186125,0
745,0.02980000000000005,5.000049991798719,0.1158705538265029,-0.114531479002899,0
746,0.02984000000000009,4.99972120164681,0.12014482217344924,-0.11880094748357549,0
747,0.029879999999999907,5.000049991798719,0.12376151079085085,-0.12241293138670795,0
748,0.029919999999999947,5.000049991798719,0.1286933589292962,-0.12734016987946967,0
749,0.029959999999999987,5.000049991798719,0.13231004758158987,-0.13095234387038024,0
750,0.030000000000000027,5.000378781950543,0.13625552612816455,-0.1348934026547185,0
751,0.030040000000000067,5.000049991798719,0.140201004692246,-0.13883455626968852,0
752,0.030080000000000107,4.99972120164681,0.14611922257114063,-0.1447485439257082,0
753,0.030119999999999925,5.000049991798719,0.15006470117888354,-0.14868988694905844,0
754,0.030159999999999965,4.99972120164681,0.15598291912315737,-0.15460406385880285,0
755,0.030200000000000005,5.000049991798719,0.16124355732868845,-0.15986075549018544,0
756,0.030240000000000045,5.000378781950543,0.16486024611289096,-0.1634735920702754,0
757,0.030280000000000085,5.000378781950543,0.1684769349116572,-0.16708652294375842,0
758,0.030319999999999903,5.000378781950543,0.17373757319036792,-0.17234349748394823,0
759,0.030359999999999943,5.000049991798719,0.176039102446966,-0.1746414570958607,0
760,0.030399999999999983,5.000378781950543,0.1789982114997947,-0.17759709050405353,0
761,0.030440000000000023,5.000049991798719,0.18064216097778074,-0.17923765824281038,0
762,0.030480000000000063,5.000378781950543,0.17998458118622715,-0.17857679052193492,0
763,0.030520000000000103,4.99972120164681,0.18162853066600876,-0.18021754578594762,0
764,0.03055999999999992,5.000049991798719,0.17866942160455673,-0.17725533612507094,0
765,0.03059999999999996,5.000049991798719,0.1753815226587669,-0.17396443009813872,0
766,0.03064,5.000049991798719,0.17110725404716948,-0.16968724782476707,0
767,0.03068000000000004,4.99972120164681,0.1655178258934021,-0.16409499932882846,0
768,0.03072000000000008,5.000049991798719,0.16124355732868845,-0.15981800364093135,0
769,0.0307599999999999,5.000378781950543,0.15236623037478086,-0.1509380426813638,0
770,0.03079999999999994,5.000378781950543,0.1418449540991078,-0.1404142254152417,0
771,0.03083999999999998,5.000049991798719,0.13132367794768446,-0.12989050118542056,0
772,0.03088000000000002,4.99972120164681,0.12047361204714746,-0.11903808001453103,0
773,0.03092000000000006,5.000049991798719,0.10830838680184553,-0.10687059220207056,0
774,0.0309600000000001,4.99972120164681,0.095485581995499,-0.09404561742606393,0
775,0.030999999999999917,4.99972120164681,0.08299156723636938,-0.08154952518823406,0
776,0.031039999999999957,5.000049991798719,0.07016876280110178,-0.06872473565784547,0
777,0.031079999999999997,5.000049991798719,0.05833232810566989,-0.05688640814265031,0
778,0.031120000000000037,4.99972120164681,0.045509524034943585,-0.04406180341845716,0
779,0.031160000000000077,5.000049991798719,0.03564582872569445,-0.03419639951213777,0
780,0.031199999999999894,4.99972120164681,0.02676850304419573,-0.025317457179227926,0
781,0.031239999999999934,5.000049991798719,0.017233597785083862,-0.015781027102790307,0
782,0.031279999999999974,4.99972120164681,0.008356272294735026,-0.006902268516792001,0
783,0.031320000000000014,5.000049991798719,0.0024380553525874815,-0.0009827100874279793,0
784,0.031360000000000054,4.99972120164681,-0.002165002240582567,0.0036215974986019417,0
785,0.031400000000000095,4.99972120164681,-0.005781690331979852,0.007239444203410952,0
786,0.03143999999999991,5.000049991798719,-0.009727168232258263,0.011185989453392248,0
787,0.03147999999999995,5.000049991798719,-0.012028696998925656,0.013488494422622496,0
788,0.03151999999999999,5.000378781950543,-0.014987805404005308,0.01644848800052226,0
789,0.03156000000000003,4.99972120164681,-0.01564538504817102,0.017106861905989673,0
790,0.03160000000000007,5.000378781950543,-0.01597417487006185,0.01743635519671395,0
791,0.03164000000000011,5.000378781950543,-0.01597417487006185,0.017436967992953925,0
792,0.03167999999999993,5.000049991798719,-0.01630296469182467,0.017766280059061154,0
793,0.03171999999999997,5.000378781950543,-0.014987805404005308,0.016451552585210513,0
794,0.03176000000000001,4.99972120164681,-0.014330225759327644,0.015794314446466326,0
795,0.03180000000000005,5.000707572102282,-0.012357486822223915,0.01382182683042038,0
796,0.03184000000000009,4.99972120164681,-0.0116999071754995,0.013164408443855413,0
797,0.03187999999999991,5.000049991798719,-0.010713537704454032,0.012178110296864858,0
798,0.03191999999999995,5.000049991798719,-0.009727168232258263,0.011191722338228294,0
799,0.03195999999999999,5.000049991798719,-0.00808321910937683,0.009547665044832843,0
800,0.03200000000000003,5.000707572102282,-0.006768059808773,0.008232308016876688,0
801,0.03204000000000007,5.000707572102282,-0.005452900506126915,0.0069168615580858794,0
802,0.03208000000000011,5.000049991798719,-0.0028225818947114484,0.004286166490588758,0
803,0.032119999999999926,4.999392411494816,-0.0008498429307955274,0.0023129619003181,0
804,0.032159999999999966,4.99972120164681,0.0021092655236763236,-0.0006467012203107692,0
805,0.032200000000000006,4.99972120164681,0.00506837398845672,-0.0036064532597741145,0
806,0.032240000000000046,5.000378781950543,0.0076986926324629085,-0.006237504254908557,0
807,0.032280000000000086,5.000378781950543,0.009671431620803153,-0.008211064237938936,0
808,0.032319999999999904,4.99972120164681,0.013616909611190692,-0.012157451732893634,0
809,0.032359999999999944,5.000378781950543,0.014932068945377922,-0.013473608947040167,0
810,0.032399999999999984,4.99972120164681,0.017233597785083862,-0.015776223906814088,0
811,0.032440000000000024,5.000049991798719,0.020521496138282788,-0.019065296484109137,0
812,0.032480000000000064,5.000378781950543,0.02216544531962629,-0.020710507856700616,0
813,0.032520000000000104,4.99972120164681,0.025124553854007567,-0.02367096641181117,0
814,0.03255999999999992,4.999392411494816,0.0264397132059056,-0.024987563475456304,0
815,0.03259999999999996,4.99972120164681,0.028083662398618273,-0.02663303793167908,0
816,0.03264,5.000049991798719,0.030056401434036775,-0.02860738964232601,0
817,0.03268000000000004,4.99972120164681,0.031042770953448276,-0.029595459107851364,0
818,0.03272000000000008,5.001036362253937,0.03202914047399413,-0.030583615703776927,0
819,0.0327599999999999,5.000049991798719,0.03400187951848738,-0.03255822881051109,0
820,0.03279999999999994,5.000049991798719,0.03597461856751347,-0.03453292876545117,0
821,0.03283999999999998,5.000049991798719,0.03696098809372539,-0.03552134589728008,0
822,0.03288000000000002,5.000378781950543,0.03696098809372539,-0.03552348005784964,0
823,0.03292000000000006,5.000707572102282,0.03893372714954513,-0.03749843968366237,0
824,0.0329600000000001,5.000378781950543,0.0392625169926218,-0.03782953635984926,0
825,0.03299999999999992,5.000049991798719,0.039920096679152195,-0.03848950899552537,0
826,0.03303999999999996,5.000378781950543,0.04222162558596615,-0.04079351681966491,0
827,0.03308,4.99972120164681,0.04419436465384674,-0.042768820624422964,0
828,0.03312000000000004,5.000378781950543,0.044851944344144246,-0.04342905072175108,0
829,0.03316000000000008,4.999392411494816,0.04616710372624461,-0.04474694603086732,0
830,0.033199999999999896,4.99972120164681,0.04748226311035131,-0.046064926711039796,0
831,0.033239999999999936,4.99972120164681,0.048139842803156765,-0.04672541291725972,0
832,0.033279999999999976,5.000378781950543,0.04781105295669137,-0.04639961464909219,0
833,0.033320000000000016,4.999392411494816,0.05044137173192248,-0.04903300991427693,0
834,0.033360000000000056,4.999392411494816,0.051098951426982675,-0.04969375085695818,0
835,0.033400000000000096,5.000378781950543,0.052414110818605225,-0.05101215609912195,0
836,0.033439999999999914,5.000378781950543,0.05307169051516736,-0.05167306609364089,0
837,0.033479999999999954,4.99972120164681,0.05340048036363608,-0.05200527053122194,0
838,0.033519999999999994,5.000049991798719,0.05307169051516736,-0.05167997940600717,0
839,0.033560000000000034,5.000049991798719,0.05372927021222988,-0.05234114180269939,0
840,0.033600000000000074,5.000707572102282,0.052414110818605225,-0.051029648926564086,0
841,0.033640000000000114,4.99972120164681,0.05307169051516736,-0.051690978799210724,0
842,0.03367999999999993,4.99972120164681,0.051098951426982675,-0.04972207338569462,0
843,0.03371999999999997,5.000378781950543,0.04912621234330475,-0.047753251314513454,0
844,0.03376000000000001,5.000049991798719,0.04715347326413659,-0.045784512424171295,0
845,0.03380000000000005,5.000378781950543,0.04452315449893275,-0.04315827686188251,0
846,0.03384000000000009,5.000378781950543,0.041564045897676996,-0.040203334314651215,0
847,0.03387999999999991,5.000049991798719,0.03860493730659416,-0.037248474464984846,0
848,0.03391999999999995,4.99972120164681,0.033015509995673945,-0.03166337841841979,0
849,0.03395999999999999,5.000378781950543,0.030385191273714543,-0.029037473318566785,0
850,0.03400000000000003,5.000049991798719,0.024466974178816228,-0.02312375203760641,0
851,0.03404000000000007,5.000378781950543,0.019206336795484613,-0.017867692493394212,0
852,0.03408000000000011,4.999392411494816,0.015260858779241576,-0.013926874174073532,0
853,0.03411999999999993,5.000049991798719,0.012301750279031881,-0.010972507060483874,0
854,0.03415999999999997,4.99972120164681,0.008356272294735026,-0.007031851983674689,0
855,0.03420000000000001,5.000049991798719,0.005725953648695714,-0.0044064375964376346,0
856,0.03424000000000005,4.999392411494816,0.0014516858662357995,-0.0001371552538205617,0
857,0.03428000000000009,5.000049991798719,-0.0008498429307955274,0.002159307093320434,0
858,0.034319999999999906,5.000378781950543,-0.004466531027802631,0.005770847902099974,0
859,0.034359999999999946,5.000049991798719,-0.006439269983302923,0.007738358903461001,0
860,0.034399999999999986,4.99972120164681,-0.008412008934208556,0.009705789407454452,0
861,0.034440000000000026,5.000707572102282,-0.010055958056451306,0.011344349763862394,0
862,0.034480000000000066,5.000378781950543,-0.009727168232258263,0.011010091029471744,0
863,0.034520000000000106,5.001036362253937,-0.00939837840793746,0.010675752325857935,0
864,0.034559999999999924,5.000049991798719,-0.012686276645394332,0.0139580218908993,0
865,0.034599999999999964,4.99972120164681,-0.010384747880516562,0.011650784837159936,0
866,0.034640000000000004,5.000378781950543,-0.00939837840793746,0.010658627636651194,0
867,0.034680000000000044,5.000049991798719,-0.007754429284417372,0.009008811524211083,0
868,0.034720000000000084,5.000049991798719,-0.007096849634115457,0.008345285802773925,0
869,0.0347599999999999,5.000378781950543,-0.006768059808773,0.008010471003551595,0
870,0.03479999999999994,5.000049991798719,-0.007425639459330238,0.008661946957648298,0
871,0.03483999999999998,5.000049991798719,-0.006439269983302923,0.007669395243435129,0
872,0.03488000000000002,5.000378781950543,-0.005452900506126915,0.006676765167892576,0
873,0.03492000000000006,4.99972120164681,-0.006110480157705198,0.007328006043155505,0
874,0.0349600000000001,5.000049991798719,-0.004466531027802631,0.00567764014190579,0
875,0.03499999999999992,5.000049991798719,-0.0028225818947114484,0.004027196426035801,0
876,0.03503999999999996,4.99972120164681,-0.001178632758433426,0.0023766750798285136,0
877,0.03508,5.000378781950543,-0.001178632758433426,0.002370025427708908,0
878,0.03512000000000004,5.000378781950543,0.0007941062093044515,0.0003905595512981447,0
879,0.03516000000000008,4.99972120164681,0.0021092655236763236,-0.0009314037419880933,0
880,0.0351999999999999,5.000049991798719,0.0024380553525874815,-0.0012670744330705377,0
881,0.03523999999999994,5.000378781950543,0.004410794328726292,-0.003246770966982497,0
882,0.03527999999999998,4.99972120164681,0.00506837398845672,-0.003911384691764476,0
883,0.03532000000000002,5.000378781950543,0.005725953648695714,-0.004576074735343619,0
884,0.03536000000000006,5.000049991798719,0.005725953648695714,-0.004583261247318338,0
885,0.0354000000000001,5.000378781950543,0.005397163818512657,-0.0042617338674285285,0
886,0.035439999999999916,4.999392411494816,0.005397163818512657,-0.0042690720650644595,0
887,0.035479999999999956,4.99972120164681,0.005397163818512657,-0.004276485818409517,0
888,0.035519999999999996,5.000378781950543,0.004739584158527918,-0.0036263952751898476,0
889,0.035560000000000036,5.000378781950543,0.005725953648695714,-0.004620329052600347,0
890,0.035600000000000076,5.000049991798719,0.006712323140007484,-0.0056143378080390285,0
891,0.035639999999999894,5.000378781950543,0.003753214669504526,-0.002662943384304804,0
892,0.035679999999999934,5.000378781950543,0.004739584158527918,-0.003657101507849786,0
893,0.035719999999999974,5.000378781950543,0.00506837398845672,-0.003993754364519687,0
894,0.035760000000000014,5.000049991798719,0.004082004499051814,-0.0030153220978997933,0
895,0.035800000000000054,4.99972120164681,0.00506837398845672,-0.004009702809317964,0
896,0.035840000000000094,5.000049991798719,0.004410794328726292,-0.0033602081733756367,0
897,0.03587999999999991,4.99972120164681,0.004410794328726292,-0.003368366800849794,0
898,0.03591999999999995,5.000049991798719,0.004410794328726292,-0.0033765988332881414,0
899,0.03595999999999999,5.000378781950543,0.00506837398845672,-0.0040424837310685455,0
900,0.03600000000000003,4.999392411494816,0.005397163818512657,-0.004379651804805033,0
901,0.03604000000000007,5.000049991798719,0.005397163818512657,-0.004388102853508873,0
902,0.03608000000000011,5.000378781950543,0.006054743479005864,-0.005054206166497981,0
903,0.03611999999999993,5.000049991798719,0.006054743479005864,-0.005062802220933069,0
904,0.03615999999999997,5.000707572102282,0.006054743479005864,-0.005071470474835159,0
905,0.03620000000000001,5.000049991798719,0.005725953648695714,-0.004751420894804979,0
906,0.03624000000000005,5.000049991798719,0.006383533309443135,-0.0054178125985065925,0
907,0.03628000000000009,5.001036362253937,0.007041112970698912,-0.006084275891074985,0
908,0.03631999999999991,5.000378781950543,0.008356272294735026,-0.007408390229856607,0
909,0.03635999999999995,5.000049991798719,0.0076986926324629085,-0.006759836760230002,0
910,0.03639999999999999,5.000378781950543,0.008027482463535476,-0.007097723755710127,0
911,0.03644000000000003,5.000707572102282,0.009342641789095676,-0.008422051010699226,0
912,0.03648000000000007,5.000378781950543,0.010000221452637598,-0.009088869161350384,0
913,0.03652000000000011,5.000049991798719,0.009671431620803153,-0.008769388166366548,0
914,0.036559999999999926,5.000378781950543,0.01032901128459894,-0.009436346808219781,0
915,0.036599999999999966,5.000378781950543,0.011315380781244458,-0.010432165215001836,0
916,0.036640000000000006,5.000707572102282,0.012630540111881347,-0.01175684317813578,0
917,0.036680000000000046,5.000378781950543,0.011972960446309217,-0.011108851657114269,0
918,0.036720000000000086,5.000049991798719,0.01065780111668721,-0.00980334977320349,0
919,0.036759999999999904,5.000049991798719,0.010000221452637598,-0.009155496644549184,0
920,0.036799999999999944,5.000707572102282,0.011644170613713423,-0.0108092412186468,0
921,0.036839999999999984,5.000378781950543,0.010000221452637598,-0.009175156135583049,0
922,0.036880000000000024,5.000707572102282,0.010986590948902406,-0.01017145816163783,0
923,0.036920000000000064,4.99972120164681,0.011972960446309217,-0.011167828426826433,0
924,0.036960000000000104,5.000378781950543,0.011315380781244458,-0.010520317553177887,0
925,0.03699999999999992,5.000049991798719,0.010986590948902406,-0.010201664320960264,0
926,0.03703999999999996,5.000049991798719,0.01032901128459894,-0.009554288849996824,0
927,0.03708,5.000378781950543,0.011644170613713423,-0.010879719749610488,0
928,0.03712000000000004,4.99972120164681,0.01295932994485767,-0.01220521781179535,0
929,0.03716000000000008,5.000378781950543,0.011644170613713423,-0.010900464155056612,0
930,0.0371999999999999,5.000049991798719,0.01295932994485767,-0.01222609588623836,0
931,0.03723999999999994,5.000049991798719,0.013945699444547363,-0.013223004293310872,0
932,0.03727999999999998,5.000049991798719,0.013945699444547363,-0.013233609489201131,0
933,0.03732000000000002,5.000378781950543,0.014603279111640999,-0.013901860421305909,0
934,0.03736000000000006,5.000049991798719,0.014932068945377922,-0.014241387369242166,0
935,0.0374000000000001,5.000049991798719,0.014932068945377922,-0.014252190112153462,0
936,0.03743999999999992,4.999392411494816,0.016576018115963126,-0.01590700743334473,0
937,0.03747999999999996,5.001365152405508,0.01789117745471111,-0.017233100108838044,0
938,0.03752,5.000378781950543,0.018877546960101396,-0.01823046791502163,0
939,0.03756000000000004,5.001036362253937,0.019206336795484613,-0.018570320792621674,0
940,0.03760000000000008,5.001365152405508,0.021507865646709548,-0.020882977204331934,0
941,0.037639999999999896,4.998734831190575,0.01821996728971463,-0.017606270702407893,0
942,0.037679999999999936,5.001693942556992,0.020521496138282788,-0.019919055476424148,0
943,0.037719999999999976,5.000049991798719,0.01821996728971463,-0.01762884639895017,0
944,0.037760000000000016,4.997748460733576,0.017233597785083862,-0.016653860285808304,0
945,0.037800000000000056,5.002351522859708,0.019206336795484613,-0.018638046082323674,0
946,0.037840000000000096,5.001365152405508,0.01821996728971463,-0.01766318653101002,0
947,0.037879999999999914,4.99972120164681,0.018548757124844717,-0.018003549262141715,0
948,0.037919999999999954,5.001365152405508,0.016576018115963126,-0.01604244586350078,0
949,0.037959999999999994,4.999392411494816,0.015589648613231935,-0.0150677744574359,0
950,0.038000000000000034,5.000049991798719,0.013945699444547363,-0.013435585643525361,0
951,0.038040000000000074,5.002022732708393,0.013616909611190692,-0.013118618194230623,0
952,0.038080000000000114,5.000049991798719,0.012301750279031881,-0.011815343046102524,0
953,0.03811999999999993,5.000707572102282,0.011644170613713423,-0.011169709134967835,0
954,0.03815999999999997,5.001036362253937,0.012301750279031881,-0.011839295894313453,0
955,0.03820000000000001,5.000378781950543,0.012630540111881347,-0.012180153930232526,0
956,0.03824000000000005,5.000707572102282,0.01328811977796078,-0.012849862677134533,0
957,0.03828000000000009,5.000049991798719,0.014274489278030808,-0.013848421904004735,0
958,0.03831999999999991,5.000049991798719,0.014932068945377922,-0.014518251711871169,0
959,0.03835999999999995,5.000049991798719,0.014932068945377922,-0.014530562033370664,0
960,0.03839999999999999,5.000049991798719,0.015260858779241576,-0.014871722136497286,0
961,0.03844000000000003,5.000378781950543,0.015260858779241576,-0.014884152119831965,0
962,0.03848000000000007,4.99972120164681,0.015918438447348998,-0.0155542212511817,0
963,0.03852000000000011,5.000378781950543,0.015918438447348998,-0.01556676995969803,0
964,0.03855999999999993,4.999392411494816,0.014932068945377922,-0.01459300817641682,0
965,0.03859999999999997,5.000049991798719,0.016576018115963126,-0.01624962384030081,0
966,0.03864000000000001,5.000049991798719,0.016576018115963126,-0.016262348872182544,0
967,0.03868000000000005,5.000378781950543,0.01789117745471111,-0.017590291544910625,0
968,0.03872000000000009,5.000049991798719,0.01756238761983417,-0.0172743431091717,0
969,0.038759999999999906,5.000707572102282,0.017233597785083862,-0.01695845250132377,0
970,0.038799999999999946,5.000049991798719,0.017233597785083862,-0.016971409318146623,0
971,0.038839999999999986,5.000378781950543,0.01789117745471111,-0.017642003156225747,0
972,0.038880000000000026,5.000049991798719,0.016904807950460177,-0.016668704933319473,0
973,0.038920000000000066,5.000049991798719,0.019206336795484613,-0.018983361933403078,0
974,0.038960000000000106,5.001036362253937,0.019206336795484613,-0.018996546722559255,0
975,0.038999999999999924,5.000378781950543,0.01953512663099438,-0.019338577741268254,0
976,0.039039999999999964,4.999392411494816,0.020521496138282788,-0.020338244585311308,0
977,0.039080000000000004,5.000378781950543,0.019863916466630674,-0.019694018163050782,0
978,0.039120000000000044,5.000378781950543,0.019863916466630674,-0.019707427083732805,0
979,0.039160000000000084,5.000707572102282,0.019863916466630674,-0.01972089143393359,0
980,0.0391999999999999,5.000378781950543,0.019206336795484613,-0.01907683130031306,0
981,0.03923999999999994,5.000378781950543,0.019206336795484613,-0.019090405782549807,0
982,0.03927999999999998,5.000049991798719,0.016247228281592724,-0.016144926452575658,0
983,0.03932000000000002,5.000378781950543,0.01328811977796078,-0.013199501591098364,0
984,0.03936000000000006,4.99972120164681,0.014274489278030808,-0.01419960894770483,0
985,0.0394000000000001,5.000049991798719,0.013945699444547363,-0.013884610940876313,0
986,0.03943999999999992,5.000049991798719,0.013616909611190692,-0.013569666659624415,0
987,0.03947999999999996,5.000378781950543,0.013945699444547363,-0.013912355525464493,0
988,0.03952,5.000378781950543,0.013616909611190692,-0.013597517959498984,0
989,0.03956000000000004,5.000707572102282,0.014932068945377922,-0.01492668255011741,0
990,0.03960000000000008,5.000378781950543,0.013616909611190692,-0.01362558121513974,0
991,0.0396399999999999,4.99972120164681,0.015260858779241576,-0.015283640878525802,0
992,0.03967999999999994,5.000707572102282,0.015260858779241576,-0.0152978036229457,0
993,0.03971999999999998,4.99972120164681,0.014932068945377922,-0.014983228535160476,0
994,0.03976000000000002,5.000049991798719,0.014603279111640999,-0.014668705201351901,0
995,0.03980000000000006,5.000707572102282,0.015260858779241576,-0.015340602874542624,0
996,0.0398400000000001,5.000049991798719,0.014603279111640999,-0.014697392469629245,0
997,0.039879999999999916,4.99972120164681,0.015260858779241576,-0.015369392408075607,0
998,0.039919999999999956,5.000378781950543,0.016247228281592724,-0.01637023294012183,0
999,0.039959999999999996,4.99972120164681,0.015589648613231935,-0.01572717481062821,0
1000,0.040000000000000036,4.99972120164681,0.016576018115963126,-0.01672811611135651,0
1001,0.040040000000000076,5.000378781950543,0.014932068945377922,-0.015098788747494134,0
1002,0.040080000000000116,5.000378781950543,0.014603279111640999,-0.01478467047844241,0
1003,0.040119999999999933,5.000049991798719,0.015589648613231935,-0.015785761051561372,0
1004,0.040159999999999973,5.000049991798719,0.015918438447348998,-0.016129321212576504,0
1005,0.040200000000000014,5.000378781950543,0.015260858779241576,-0.015486560874914103,0
1006,0.040240000000000054,5.000049991798719,0.015589648613231935,-0.01583021879072598,0
1007,0.040280000000000094,5.000378781950543,0.015918438447348998,-0.01617392520552626,0
1008,0.04031999999999991,4.99972120164681,0.016904807950460177,-0.017175259535326122,0
1009,0.04035999999999995,5.000378781950543,0.017233597785083862,-0.01751906218944925,0
1010,0.04039999999999999,5.000707572102282,0.015918438447348998,-0.016218963410494426,0
1011,0.04044000000000003,4.99972120164681,0.01789117745471111,-0.018206810462054517,0
1012,0.04048000000000007,4.99972120164681,0.01756238761983417,-0.017893175902601303,0
1013,0.04052000000000011,5.000049991798719,0.01756238761983417,-0.017908378154732032,0
1014,0.04055999999999993,5.000049991798719,0.018548757124844717,-0.018909996633737977,0
1015,0.04059999999999997,4.99972120164681,0.016576018115963126,-0.016952553065553558,0
1016,0.04064000000000001,5.000378781950543,0.016576018115963126,-0.01696789471747201,0
1017,0.04068000000000005,5.000049991798719,0.01756238761983417,-0.017969651828687677,0
1018,0.04072000000000009,5.000049991798719,0.01789117745471111,-0.018313874970228676,0
1019,0.04075999999999991,5.000378781950543,0.018548757124844717,-0.018986933389930353,0
1020,0.04079999999999995,4.99972120164681,0.017233597785083862,-0.017687297985920496,0
1021,0.04083999999999999,5.000049991798719,0.016904807950460177,-0.017374077016206968,0
1022,0.04088000000000003,4.99972120164681,0.01789117745471111,-0.01837606005720377,0
1023,0.04092000000000007,5.000049991798719,0.015589648613231935,-0.016090189166686093,0
1024,0.04096000000000011,4.99972120164681,0.015918438447348998,-0.01643468110806657,0
1025,0.040999999999999925,5.000378781950543,0.015260858779241576,-0.015792847445320172,0
1026,0.041039999999999965,5.000707572102282,0.013616909611190692,-0.014164687922236036,0
1027,0.041080000000000005,5.000378781950543,0.01328811977796078,-0.013851731114802123,0
1028,0.041120000000000045,5.000049991798719,0.013616909611190692,-0.01419639709559929,0
1029,0.041160000000000085,5.000378781950543,0.01295932994485767,-0.013554736439268291,0
1030,0.0411999999999999,4.99972120164681,0.013616909611190692,-0.014228277718426182,0
1031,0.04123999999999994,5.000049991798719,0.01328811977796078,-0.013915491840959643,0
1032,0.04127999999999998,5.000378781950543,0.013945699444547363,-0.014589117546094363,0
1033,0.04132000000000002,4.99972120164681,0.012630540111881347,-0.013290046074341153,0
1034,0.04136000000000006,5.000049991798719,0.01328811977796078,-0.013963755163014598,0
1035,0.0414000000000001,5.000049991798719,0.01328811977796078,-0.01397992588634603,0
1036,0.04143999999999992,5.000707572102282,0.013945699444547363,-0.014653717315800372,0
1037,0.04147999999999996,5.000049991798719,0.013945699444547363,-0.014669969856749166,0
1038,0.04152,4.999392411494816,0.014932068945377922,-0.01567263241490309,0
1039,0.04156000000000004,5.000378781950543,0.013945699444547363,-0.014702596225815935,0
1040,0.04160000000000008,5.000378781950543,0.013616909611190692,-0.01439017969642321,0
1041,0.0416399999999999,5.000049991798719,0.013945699444547363,-0.01473538256352292,0
1042,0.04167999999999994,5.000378781950543,0.014274489278030808,-0.01508062489784816,0
1043,0.04171999999999998,4.99972120164681,0.013616909611190692,-0.014439536936032405,0
1044,0.04176000000000002,5.000049991798719,0.012630540111881347,-0.013469698082781088,0
1045,0.04180000000000006,5.000707572102282,0.012630540111881347,-0.013486267406494248,0
1046,0.0418400000000001,4.999063621342738,0.012630540111881347,-0.013502875144257442,0
1047,0.04187999999999992,5.000049991798719,0.012630540111881347,-0.013519521032242068,0
1048,0.04191999999999996,5.000378781950543,0.013616909611190692,-0.014522574305708434,0
1049,0.04196,5.000707572102282,0.013616909611190692,-0.014539295701771456,0
1050,0.04200000000000004,5.000378781950543,0.01328811977796078,-0.014227264622029927,0
1051,0.04204000000000008,4.99972120164681,0.01328811977796078,-0.014244060468251859,0
1052,0.042079999999999895,5.000378781950543,0.01295932994485767,-0.01393210330920435,0
1053,0.042119999999999935,4.99972120164681,0.011972960446309217,-0.012962603047440345,0
1054,0.042159999999999975,5.000378781950543,0.012301750279031881,-0.013308298414369589,0
1055,0.042200000000000015,4.99972120164681,0.01295932994485767,-0.013982819646318596,0
1056,0.042240000000000055,4.99972120164681,0.012301750279031881,-0.013342217312831493,0
1057,0.042280000000000095,5.000378781950543,0.013616909611190692,-0.01467438947765071,0
1058,0.04231999999999991,5.000049991798719,0.013616909611190692,-0.01469143754454964,0
1059,0.04235999999999995,4.999392411494816,0.01295932994485767,-0.014050940913084524,0
1060,0.04239999999999999,4.999392411494816,0.013945699444547363,-0.015054428149158333,0
1061,0.04244000000000003,5.000049991798719,0.01328811977796078,-0.014414000653839236,0
1062,0.04248000000000007,5.000049991798719,0.013616909611190692,-0.014759976826410223,0
1063,0.04252000000000011,5.000378781950543,0.013616909611190692,-0.01477719706684128,0
1064,0.04255999999999993,5.000378781950543,0.01328811977796078,-0.01446566110797808,0
1065,0.04259999999999997,5.000378781950543,0.014603279111640999,-0.015798107682638764,0
1066,0.04264000000000001,5.000049991798719,0.014603279111640999,-0.015815428022746634,0
1067,0.04268000000000005,5.000707572102282,0.015589648613231935,-0.01681915069592517,0
1068,0.04272000000000009,5.000707572102282,0.016247228281592724,-0.017494116099547426,0
1069,0.04275999999999991,5.000049991798719,0.015589648613231935,-0.016853954462161033,0
1070,0.04279999999999995,5.000049991798719,0.016904807950460177,-0.018186563857963665,0
1071,0.04283999999999999,5.000049991798719,0.016904807950460177,-0.01820404567587626,0
1072,0.04288000000000003,5.000049991798719,0.016576018115963126,-0.017892769150222473,0
1073,0.04292000000000007,5.000378781950543,0.019206336795484613,-0.020540632360967735,0
1074,0.04296000000000011,5.000049991798719,0.01821996728971463,-0.019571838340112425,0
1075,0.04299999999999993,5.000378781950543,0.018877546960101396,-0.020247024180278822,0
1076,0.04303999999999997,4.99972120164681,0.019206336795484613,-0.0205934506013475,0
1077,0.04308000000000001,5.000378781950543,0.018877546960101396,-0.020282327498466403,0
1078,0.04312000000000005,4.99972120164681,0.018548757124844717,-0.019971234273312457,0
1079,0.04316000000000009,5.000049991798719,0.018548757124844717,-0.019988960491676012,0
1080,0.043199999999999905,5.000378781950543,0.018548757124844717,-0.020006716048840013,0
1081,0.043239999999999945,5.000378781950543,0.016576018115963126,-0.01805176166634504,0
1082,0.043279999999999985,4.999392411494816,0.015260858779241576,-0.016754415755540618,0
1083,0.043320000000000025,4.999392411494816,0.015260858779241576,-0.01677225771118502,0
1084,0.043360000000000065,5.000049991798719,0.014932068945377922,-0.016461338092781812,0
1085,0.043400000000000105,5.000378781950543,0.013945699444547363,-0.015492866797211648,0
1086,0.04343999999999992,4.99972120164681,0.01328811977796078,-0.014853213055567593,0
1087,0.04347999999999996,5.000378781950543,0.01295932994485767,-0.014542376596872728,0
1088,0.04352,5.000049991798719,0.01295932994485767,-0.014560357150434867,0
1089,0.04356000000000004,5.000378781950543,0.012630540111881347,-0.014249574779770489,0
1090,0.04360000000000008,5.000378781950543,0.012630540111881347,-0.014267608880339056,0
1091,0.0436399999999999,5.000378781950543,0.013616909611190692,-0.015272038847894485,0
1092,0.04367999999999994,5.000049991798719,0.014603279111640999,-0.0162764949136065,0
1093,0.04371999999999998,5.000049991798719,0.01328811977796078,-0.014979447971462095,0
1094,0.04376000000000002,5.000049991798719,0.013616909611190692,-0.015326375751683911,0
1095,0.04380000000000006,5.000378781950543,0.01328811977796078,-0.015015749150010627,0
1096,0.0438400000000001,5.000378781950543,0.013945699444547363,-0.01569151706175702,0
1097,0.04387999999999992,5.000049991798719,0.01328811977796078,-0.01505215038290491,0
1098,0.04391999999999996,5.000049991798719,0.014274489278030808,-0.016056757342191686,0
1099,0.04396,5.000378781950543,0.01328811977796078,-0.01508864950166764,0
1100,0.04400000000000004,4.99972120164681,0.012630540111881347,-0.014449355424252842,0
1101,0.04404000000000008,5.000049991798719,0.01295932994485767,-0.014796454503747534,0
1102,0.0440799999999999,5.000378781950543,0.01295932994485767,-0.014814787136803538,0
1103,0.04411999999999994,4.99972120164681,0.012301750279031881,-0.014175563219207295,0
1104,0.04415999999999998,5.000049991798719,0.011315380781244458,-0.013207572313414013,0
1105,0.04420000000000002,4.99972120164681,0.009342641789095676,-0.011253234485573336,0
1106,0.04424000000000006,5.000049991798719,0.011644170613713423,-0.013573186775324004,0
1107,0.0442800000000001,4.99972120164681,0.009342641789095676,-0.011290103445139523,0
1108,0.044319999999999915,4.999392411494816,0.0076986926324629085,-0.009664621540683694,0
1109,0.044359999999999955,5.000378781950543,0.008356272294735026,-0.010340689941290733,0
1110,0.044399999999999995,5.000049991798719,0.008356272294735026,-0.0103591998941721,0
1111,0.044440000000000035,5.000049991798719,0.008356272294735026,-0.010377730789965662,0
1112,0.044480000000000075,4.999392411494816,0.008027482463535476,-0.010067492525818053,0
1113,0.044520000000000115,4.999063621342738,0.007041112970698912,-0.009099694999621573,0
1114,0.04455999999999993,5.000378781950543,0.009342641789095676,-0.01141981591256307,0
1115,0.04459999999999997,4.999392411494816,0.007041112970698912,-0.0091368990449221,0
1116,0.04464000000000001,4.99972120164681,0.008027482463535476,-0.010141900073024967,0
1117,0.04468000000000005,5.000378781950543,0.008356272294735026,-0.010489340752297004,0
1118,0.04472000000000009,5.000049991798719,0.008356272294735026,-0.010508010641470715,0
1119,0.04475999999999991,4.99972120164681,0.009342641789095676,-0.011513068794403876,0
1120,0.04479999999999995,5.000049991798719,0.008356272294735026,-0.010545406456317814,0
1121,0.04483999999999999,5.000049991798719,0.009013851957515154,-0.011221711501386738,0
1122,0.04488000000000003,4.99972120164681,0.009013851957515154,-0.011240454838013888,0
1123,0.04492000000000007,4.99972120164681,0.008356272294735026,-0.01060163619453859,0
1124,0.04496000000000011,4.99972120164681,0.007369902801517392,-0.00963404513166113,0
1125,0.04499999999999993,5.000378781950543,0.007369902801517392,-0.009652840701415817,0
1126,0.04503999999999997,5.000049991798719,0.008027482463535476,-0.010329232801006933,0
1127,0.04508000000000001,5.000049991798719,0.008685062126061585,-0.011005641497356073,0
1128,0.04512000000000005,4.99972120164681,0.009013851957515154,-0.011353276687345296,0
1129,0.04516000000000009,4.99972120164681,0.010000221452637598,-0.012358507594212744,0
1130,0.04519999999999991,5.000049991798719,0.009342641789095676,-0.01171980512415916,0
1131,0.04523999999999995,5.000049991798719,0.008356272294735026,-0.010752328333604564,0
1132,0.04527999999999999,5.000049991798719,0.008027482463535476,-0.010442446445146705,0
1133,0.04532000000000003,5.000049991798719,0.008027482463535476,-0.010461369355488644,0
1134,0.04536000000000007,5.000378781950543,0.008685062126061585,-0.011137886624671392,0
1135,0.04540000000000011,5.000049991798719,0.008356272294735026,-0.010828048825083623,0
1136,0.045439999999999925,4.99972120164681,0.009013851957515154,-0.011504594673508292,0
1137,0.045479999999999965,5.000049991798719,0.008027482463535476,-0.0105372052479618,0
1138,0.045520000000000005,5.000049991798719,0.009013851957515154,-0.011542568422108615,0
1139,0.045560000000000045,5.000378781950543,0.008027482463535476,-0.010575205949040909,0
1140,0.045600000000000085,5.000049991798719,0.008685062126061585,-0.011251805702303407,0
1141,0.0456399999999999,4.99972120164681,0.008685062126061585,-0.011270838592015647,0
1142,0.04567999999999994,4.99972120164681,0.007369902801517392,-0.009974724685385978,0
1143,0.04571999999999998,5.000049991798719,0.008027482463535476,-0.010651362022825437,0
1144,0.04576000000000002,5.000049991798719,0.008356272294735026,-0.01099922151633904,0
1145,0.04580000000000006,4.99972120164681,0.007041112970698912,-0.009703143570979874,0
1146,0.0458400000000001,5.000049991798719,0.011315380781244458,-0.013996504206122997,0
1147,0.04587999999999992,4.999392411494816,0.006712323140007484,-0.009412550565052653,0
1148,0.04591999999999996,5.000378781950543,0.007041112970698912,-0.00976045530122194,0
1149,0.04596,5.000707572102282,0.006712323140007484,-0.00945079101115869,0
1150,0.04600000000000004,5.001365152405508,0.004082004499051814,-0.006839608275920636,0
1151,0.04604000000000008,5.000707572102282,0.007369902801517392,-0.010146652579235515,0
1152,0.0460799999999999,5.000378781950543,0.0027668451816259126,-0.005562750785473548,0
1153,0.04611999999999994,5.001036362253937,0.006712323140007484,-0.009527394125522717,0
1154,0.04615999999999998,4.999392411494816,0.007369902801517392,-0.010204148454608687,0
1155,0.04620000000000002,5.002022732708393,0.006383533309443135,-0.009236962646504922,0
1156,0.04624000000000006,5.001365152405508,0.006054743479005864,-0.008927365247037244,0
1157,0.0462800000000001,5.000378781950543,0.006712323140007484,-0.009604145816734055,0
1158,0.04631999999999992,5.000049991798719,0.0027668451816259126,-0.005677876975624707,0
1159,0.04635999999999996,5.000707572102282,0.006712323140007484,-0.009642571990835002,0
1160,0.0464,5.002351522859708,0.0024380553525874815,-0.005387528930910863,0
1161,0.04644000000000004,4.99972120164681,0.00506837398845672,-0.008037079696187976,0
1162,0.04648000000000008,5.000049991798719,0.005397163818512657,-0.008385108788946044,0
1163,0.046519999999999895,4.999392411494816,0.005725953648695714,-0.008733144746648172,0
1164,0.046559999999999935,5.000378781950543,0.004410794328726292,-0.007437238150680993,0
1165,0.046599999999999975,5.000378781950543,0.003424424840084442,-0.006470127714337439,0
1166,0.046640000000000015,5.000049991798719,0.004082004499051814,-0.007146972485861771,0
1167,0.046680000000000055,5.000378781950543,0.004739584158527918,-0.00782382305026893,0
1168,0.046720000000000095,5.000378781950543,0.004739584158527918,-0.00784309947984541,0
1169,0.04675999999999991,5.000049991798719,0.003753214669504526,-0.006876011677474214,0
1170,0.04679999999999995,5.000049991798719,0.004410794328726292,-0.007552878013016247,0
1171,0.04683999999999999,5.000378781950543,0.004410794328726292,-0.007572169411762062,0
1172,0.04688000000000003,5.000378781950543,0.004082004499051814,-0.007262675436184628,0
1173,0.04692000000000007,5.000049991798719,0.006054743479005864,-0.00925471445868389,0
1174,0.04696000000000011,4.99972120164681,0.004082004499051814,-0.007301279442994486,0
1175,0.04699999999999993,5.000378781950543,0.003753214669504526,-0.00699179723287989,0
1176,0.04703999999999997,5.000378781950543,0.003424424840084442,-0.006682318411689571,0
1177,0.04708000000000001,5.000707572102282,0.0024380553525874815,-0.0057152630550319355,0
1178,0.04712000000000005,5.000049991798719,0.0024380553525874815,-0.005734580042479821,0
1179,0.04716000000000009,4.99972120164681,0.0030956350107915753,-0.00641147927892893,0
1180,0.04719999999999991,5.000049991798719,0.0014516858662357995,-0.004786852037796481,0
1181,0.04723999999999995,5.000049991798719,0.003424424840084442,-0.006778914974823583,0
1182,0.04727999999999999,5.000049991798719,0.0021092655236763236,-0.00548308141612459,0
1183,0.04732000000000003,5.000049991798719,0.0024380553525874815,-0.0058311985322527906,0
1184,0.04736000000000007,5.000378781950543,0.001780475694892425,-0.005192947426464728,0
1185,0.04740000000000011,4.99972120164681,0.0014516858662357995,-0.0048834871497948976,0
1186,0.04743999999999993,4.99972120164681,0.0014516858662357995,-0.00490281743746219,0
1187,0.04747999999999997,5.000378781950543,0.0014516858662357995,-0.004922148196624544,0
1188,0.04752000000000001,5.000049991798719,0.0021092655236763236,-0.005599058820753928,0
1189,0.04756000000000005,4.99972120164681,0.0007941062093044515,-0.004303230416848764,0
1190,0.04760000000000009,5.000049991798719,0.00013652655288240445,-0.0036649813511455257,0
1191,0.047639999999999905,4.99972120164681,0.0007941062093044515,-0.004341891015238664,0
1192,0.047679999999999945,5.000378781950543,0.0004653163810297567,-0.004032430348516459,0
1193,0.047719999999999985,5.000049991798719,-0.0008498429307955274,-0.0027365990892861073,0
1194,0.047760000000000025,4.99972120164681,0.0004653163810297567,-0.00407108508214475,0
1195,0.047800000000000065,5.000378781950543,0.0004653163810297567,-0.004090410129250463,0
1196,0.047840000000000105,5.000378781950543,0.0004653163810297567,-0.004109733280303399,0
1197,0.04787999999999992,4.999392411494816,0.001122896037706475,-0.004786633930099073,0
1198,0.04791999999999996,4.99972120164681,0.001122896037706475,-0.004805952503649762,0
1199,0.04796,5.000707572102282,0.0004653163810297567,-0.00416768873957108,0
1200,0.04800000000000004,5.001036362253937,0.0014516858662357995,-0.00517337117529098,0
1201,0.04804000000000008,5.000049991798719,0.0007941062093044515,-0.004535101265913637,0
1202,0.0480799999999999,5.000707572102282,0.0027668451816259126,-0.006527146522212392,0
1203,0.04811999999999994,5.000049991798719,0.003424424840084442,-0.007204028740716432,0
1204,0.04815999999999998,5.000378781950543,0.001780475694892425,-0.005579378171547811,0
1205,0.04820000000000002,5.000049991798719,0.001780475694892425,-0.005598672503726451,0
1206,0.04824000000000006,5.000049991798719,0.0004653163810297567,-0.00430280301864568,0
1207,0.0482800000000001,5.000049991798719,0.0004653163810297567,-0.004322088084752444,0
1208,0.04831999999999992,4.99972120164681,0.0007941062093044515,-0.004670157957456932,0
1209,0.04835999999999996,4.99972120164681,-0.00019226327513760522,-0.0037030632370453473,0
1210,0.0484,4.999392411494816,-0.0005210531030302584,-0.0033935426343439214,0
1211,0.04844000000000004,5.000378781950543,-0.0008498429307955274,-0.0030840162347760772,0
1212,0.04848000000000008,5.000378781950543,-0.0015074225859438989,-0.002445693952965071,0
1213,0.0485199999999999,5.000049991798719,-0.001178632758433426,-0.002793734841377812,0
1214,0.04855999999999994,5.000049991798719,-0.0018362124133269458,-0.0021553996776705695,0
1215,0.04859999999999998,5.000049991798719,-0.0028225818947114484,-0.0011882678607725208,0
1216,0.04864000000000002,5.000378781950543,-0.0031513717215847087,-0.0008787086150020321,0
1217,0.04868000000000006,4.99972120164681,-0.003808951374948702,-0.00024035220297615812,0
1218,0.0487200000000001,4.99972120164681,-0.004137741201439435,6.922197801628683e-05,0
1219,0.048759999999999915,4.99972120164681,-0.003808951374948702,-0.00027877564236640767,0
1220,0.048799999999999955,5.000049991798719,-0.004466531027802631,0.0003596043236567914,0
1221,0.048839999999999995,5.000049991798719,-0.0047953208540382625,0.0006692028252633549,0
1222,0.048880000000000035,5.000378781950543,-0.0047953208540382625,0.0006500201176590187,0
1223,0.048920000000000075,5.000049991798719,-0.005781690331979852,0.00161721575952384,0
1224,0.048960000000000115,4.99972120164681,-0.005781690331979852,0.0015980510491543573,0
1225,0.04899999999999993,4.999063621342738,-0.005124110680146385,0.0009213160665124272,0
1226,0.04903999999999997,5.000378781950543,-0.006439269983302923,0.0022173296719464153,0
1227,0.04908000000000001,5.000049991798719,-0.005781690331979852,0.0015406142091799004,0
1228,0.04912000000000005,5.000707572102282,-0.006768059808773,0.002507858013667349,0
1229,0.04916000000000009,5.000378781950543,-0.005452900506126915,0.001173583430374557,0
1230,0.04919999999999991,5.000378781950543,-0.005781690331979852,0.0014832686194207823,0
1231,0.04923999999999995,5.000049991798719,-0.006110480157705198,0.0017929647040173394,0
1232,0.04927999999999999,5.000049991798719,-0.006439269983302923,0.002102671935656231,0
1233,0.04932000000000003,5.000049991798719,-0.005781690331979852,0.0014260210886875716,0
1234,0.04936000000000007,5.000049991798719,-0.006110480157705198,0.0017357513678723088,0
1235,0.04940000000000011,5.000049991798719,-0.005124110680146385,0.0007303342433152326,0
1236,0.04943999999999993,5.000049991798719,-0.005452900506126915,0.0010400885719200241,0
1237,0.04947999999999997,5.000378781950543,-0.005452900506126915,0.0010210654738870223,0
1238,0.04952000000000001,5.000378781950543,-0.004137741201439435,-0.0003131042801332827,0
1239,0.04956000000000005,5.000378781950543,-0.005124110680146385,0.000654267646932884,0
1240,0.04960000000000009,4.99972120164681,-0.0047953208540382625,0.0003064934154995381,0
1241,0.049639999999999906,5.000049991798719,-0.005452900506126915,0.0009451020568309043,0
1242,0.049679999999999946,4.999392411494816,-0.005781690331979852,0.0012549345143729532,0
1243,0.049719999999999986,5.000049991798719,-0.005124110680146385,0.0005784113841767529,0
1244,0.049760000000000026,4.99972120164681,-0.0047953208540382625,0.0002306922167763497,0
1245,0.049800000000000066,5.000049991798719,-0.004466531027802631,-0.0001170125669410476,0
1246,0.049840000000000106,4.99972120164681,-0.004466531027802631,-0.0001359128942572379,0
1247,0.049879999999999924,5.000378781950543,-0.006110480157705198,0.0014891507844620143,0
1248,0.049919999999999964,5.000378781950543,-0.005781690331979852,0.001141490629263029,0
1249,0.049960000000000004,5.000378781950543,-0.005781690331979852,0.001122635666682607,0
1250,0.050000000000000044,4.99972120164681,-0.006439269983302923,0.001761375967106073,0
1251,0.050040000000000084,4.99972120164681,-0.005781690331979852,0.001084972820953137,0
1252,0.0500799999999999,5.000707572102282,-0.006110480157705198,0.0013949552519058831,0
1253,0.05011999999999994,5.000378781950543,-0.005452900506126915,0.0007185845491957058,0
1254,0.05015999999999998,5.000378781950543,-0.005124110680146385,0.0003710202589006298,0
1255,0.05020000000000002,4.99972120164681,-0.006768059808773,0.0019962117527972025,0
1256,0.05024000000000006,4.99972120164681,-0.007425639459330238,0.002635050840563879,0
1257,0.0502800000000001,5.000049991798719,-0.007096849634115457,0.002287537766438112,0
1258,0.05031999999999992,4.99972120164681,-0.007754429284417372,0.00292641172323118,0
1259,0.05035999999999996,4.99972120164681,-0.007096849634115457,0.0022501441759249334,0
1260,0.0504,4.99972120164681,-0.00808321910937683,0.0032178437913660055,0
1261,0.05044000000000004,4.999392411494816,-0.0090695885834889,0.004185561683095816,0
1262,0.05048000000000008,5.000049991798719,-0.007754429284417372,0.0028517693189059248,0
1263,0.0505199999999999,5.000707572102282,-0.00808321910937683,0.003161944835405956,0
1264,0.05055999999999994,5.000049991798719,-0.007754429284417372,0.0028145596976075944,0
1265,0.05059999999999998,4.999392411494816,-0.00874079875891258,0.0037823530934098914,0
1266,0.05064000000000002,5.000707572102282,-0.011042327528263687,0.006065325256300825,0
1267,0.05068000000000006,4.99972120164681,-0.011042327528263687,0.006046788359718775,0
1268,0.0507200000000001,5.000049991798719,-0.011042327528263687,0.006028271410216265,0
1269,0.050759999999999916,5.000049991798719,-0.010384747880516562,0.005352194996801012,0
1270,0.050799999999999956,5.000378781950543,-0.00939837840793746,0.0043473491786938274,0
1271,0.050839999999999996,5.000049991798719,-0.00874079875891258,0.0036713138401347992,0
1272,0.050880000000000036,5.000049991798719,-0.010384747880516562,0.0052968281635980986,0
1273,0.050920000000000076,5.000378781950543,-0.010055958056451306,0.004949624667728242,0
1274,0.050960000000000116,5.000378781950543,-0.011042327528263687,0.005917601828555226,0
1275,0.050999999999999934,4.999392411494816,-0.0116999071754995,0.006556810759645896,0
1276,0.051039999999999974,5.000378781950543,-0.0113711173519455,0.006209672048343452,0
1277,0.051080000000000014,5.000378781950543,-0.01301506646843685,0.007835294338572312,0
1278,0.051120000000000054,5.000707572102282,-0.0113711173519455,0.006173040689924018,0
1279,0.051160000000000094,4.99972120164681,-0.011042327528263687,0.005825968860338147,0
1280,0.05119999999999991,5.000707572102282,-0.0113711173519455,0.006136499436041382,0
1281,0.05123999999999995,5.000378781950543,-0.010713537704454032,0.005460683529692107,0
1282,0.05127999999999999,5.000378781950543,-0.011042327528263687,0.005771260314480206,0
1283,0.05132000000000003,5.000049991798719,-0.010713537704454032,0.005424280901718389,0
1284,0.05136000000000007,5.000378781950543,-0.010055958056451306,0.0047485353445812,0
1285,0.05140000000000011,5.000378781950543,-0.010384747880516562,0.005059183168590676,0
1286,0.05143999999999993,5.000378781950543,-0.0090695885834889,0.0037259060093571047,0
1287,0.05147999999999997,4.99972120164681,-0.0090695885834889,0.0037078125132799615,0
1288,0.05152000000000001,4.99972120164681,-0.010055958056451306,0.004676113084078136,0
1289,0.05156000000000005,4.999392411494816,-0.009727168232258263,0.004329279178920729,0
1290,0.05160000000000009,5.000378781950543,-0.010384747880516562,0.004968839794201811,0
1291,0.05163999999999991,5.000378781950543,-0.00939837840793746,0.003964476562917835,0
1292,0.05167999999999995,5.000378781950543,-0.0090695885834889,0.003617718479817369,0
1293,0.05171999999999999,5.000049991798719,-0.010384747880516562,0.004914935243519717,0
1294,0.05176000000000003,4.99972120164681,-0.0090695885834889,0.0035818593632575193,0
1295,0.05180000000000007,5.000049991798719,-0.010384747880516562,0.00487912825139372,0
1296,0.05184000000000011,5.000378781950543,-0.010384747880516562,0.004861264240583359,0
1297,0.051879999999999926,5.000049991798719,-0.008412008934208556,0.002870687904767428,0
1298,0.051919999999999966,4.99972120164681,-0.008412008934208556,0.002852877359264174,0
1299,0.051960000000000006,5.000049991798719,-0.0090695885834889,0.0034926735292267162,0
1300,0.052000000000000046,5.000707572102282,-0.00874079875891258,0.003146127513174982,0
1301,0.052040000000000086,4.99972120164681,-0.0090695885834889,0.0034571886552489817,0
1302,0.052079999999999904,5.000707572102282,-0.007754429284417372,0.0021243284032503654,0
1303,0.052119999999999944,5.000378781950543,-0.006439269983302923,0.0007914960988552912,0
1304,0.052159999999999984,4.999392411494816,-0.005781690331979852,0.00011627161343602532,0
1305,0.052200000000000024,5.000707572102282,-0.003808951374948702,-0.001874083789504502,0
1306,0.052240000000000064,4.999392411494816,-0.001178632758433426,-0.0045219902452778675,0
1307,0.052280000000000104,5.000049991798719,0.0027668451816259126,-0.008485027200019764,0
1308,0.05231999999999992,4.99972120164681,0.007369902801517392,-0.013105614792636597,0
1309,0.05235999999999996,4.99972120164681,0.018877546960101396,-0.0246307596651519,0
1310,0.0524,5.000049991798719,0.033015509995673945,-0.038786193939572076,0
1311,0.05244000000000004,5.000049991798719,0.0323579303144281,-0.03814605580635003,0
1312,0.05248000000000008,5.000378781950543,0.03465945920099257,-0.040464996334926034,0
1313,0.0525199999999999,5.000378781950543,0.03564582872569445,-0.04146874738099299,0
1314,0.05255999999999994,5.000049991798719,0.03268672015498804,-0.03852698999692729,0
1315,0.05259999999999998,5.000049991798719,0.03202914047399413,-0.03788673095433042,0
1316,0.05264000000000002,4.999063621342738,0.03334429983648583,-0.03921918019401694,0
1317,0.05268000000000006,5.000378781950543,0.027426082721154613,-0.033318221982282854,0
1318,0.0527200000000001,4.99972120164681,0.022494235156274286,-0.028403602135571762,0
1319,0.05275999999999992,5.000378781950543,0.016904807950460177,-0.022831371251236292,0
1320,0.05279999999999996,5.000378781950543,0.015918438447348998,-0.021862166462220167,0
1321,0.05284,5.000378781950543,0.014603279111640999,-0.020564140023102466,0
1322,0.05288000000000004,4.99972120164681,0.011972960446309217,-0.017950922227309013,0
1323,0.05292000000000008,4.99972120164681,0.008027482463535476,-0.014022512878050584,0
1324,0.052959999999999896,4.99972120164681,0.007041112970698912,-0.013053179574313623,0
1325,0.052999999999999936,4.998734831190575,0.0024380553525874815,-0.008467125493073886,0
1326,0.053039999999999976,4.99972120164681,0.0027668451816259126,-0.008812885999526572,0
1327,0.053080000000000016,5.000378781950543,0.008356272294735026,-0.014419250723947757,0
1328,0.053120000000000056,5.000707572102282,0.012301750279031881,-0.018381633047396657,0
1329,0.053160000000000096,5.000049991798719,0.009013851957515154,-0.015110605587403174,0
1330,0.053199999999999914,5.000378781950543,0.006054743479005864,-0.01216833428791066,0
1331,0.053239999999999954,5.000378781950543,0.004082004499051814,-0.010212398600182547,0
1332,0.053279999999999994,4.99972120164681,0.005725953648695714,-0.011873116951572563,0
1333,0.053320000000000034,5.000378781950543,0.006712323140007484,-0.012876221351059092,0
1334,0.053360000000000074,5.000378781950543,0.008027482463535476,-0.014208081086698441,0
1335,0.053400000000000114,5.000378781950543,0.012301750279031881,-0.01849901461635231,0
1336,0.05343999999999993,5.000378781950543,0.014603279111640999,-0.02081717426387808,0
1337,0.05347999999999997,4.99972120164681,0.016576018115963126,-0.02280650898319471,0
1338,0.05352000000000001,4.999392411494816,0.015918438447348998,-0.022165489729579248,0
1339,0.05356000000000005,5.000049991798719,0.013945699444547363,-0.020209275642316428,0
1340,0.05360000000000009,5.000049991798719,0.014603279111640999,-0.02088334452663676,0
1341,0.05363999999999991,5.000049991798719,0.015589648613231935,-0.02188616734890378,0
1342,0.05367999999999995,4.99972120164681,0.013945699444547363,-0.020258635406721993,0
1343,0.05371999999999999,4.99972120164681,0.011972960446309217,-0.018302277343808397,0
1344,0.05376000000000003,4.99972120164681,0.011972960446309217,-0.018318621791569435,0
1345,0.05380000000000007,4.99972120164681,0.01032901128459894,-0.01669098039429308,0
1346,0.05384000000000011,5.000378781950543,0.009013851957515154,-0.015392091953176108,0
1347,0.05387999999999993,5.000049991798719,0.009342641789095676,-0.01573711559774192,0
1348,0.05391999999999997,5.000707572102282,0.010986590948902406,-0.017397261303665493,0
1349,0.05396000000000001,4.99972120164681,0.009671431620803153,-0.016098261061557116,0
1350,0.05400000000000005,4.99972120164681,0.009342641789095676,-0.01578559266308839,0
1351,0.05404000000000009,5.000049991798719,0.009013851957515154,-0.015472886420001636,0
1352,0.054079999999999906,5.000049991798719,0.009671431620803153,-0.016146511635680736,0
1353,0.054119999999999946,5.000049991798719,0.008356272294735026,-0.014847359635180468,0
1354,0.054159999999999986,5.000378781950543,0.005397163818512657,-0.011904220067621173,0
1355,0.054200000000000026,5.000378781950543,0.006054743479005864,-0.012577730030431923,0
1356,0.054240000000000066,4.999063621342738,0.003424424840084442,-0.009963302898684464,0
1357,0.054280000000000106,5.000378781950543,0.0030956350107915753,-0.009650365593268366,0
1358,0.054319999999999924,5.001365152405508,0.0076986926324629085,-0.014269236568012038,0
1359,0.054359999999999964,5.001036362253937,0.006712323140007484,-0.013298641070965487,0
1360,0.054400000000000004,4.999063621342738,0.011644170613713423,-0.018246222996207803,0
1361,0.054440000000000044,5.001693942556992,0.010000221452637598,-0.01661796855723867,0
1362,0.054480000000000084,4.998734831190575,0.01065780111668721,-0.017291203029061765,0
1363,0.0545199999999999,4.997419670581074,0.011315380781244458,-0.017964397402811236,0
1364,0.05455999999999994,5.000378781950543,0.012301750279031881,-0.018966341327618777,0
1365,0.05459999999999998,4.999063621342738,0.011315380781244458,-0.017995505791747468,0
1366,0.05464000000000002,4.998077250885994,0.015260858779241576,-0.021956477104285443,0
1367,0.05468000000000006,4.997748460733576,0.02019270630239349,-0.026903777112994055,0
1368,0.0547200000000001,4.999063621342738,0.021836655483104705,-0.028563137769332933,0
1369,0.05475999999999992,4.999063621342738,0.01756238761983417,-0.02430424019148191,0
1370,0.05479999999999996,5.002022732708393,0.010986590948902406,-0.017743772436149968,0
1371,0.05484,5.000707572102282,0.00506837398845672,-0.01184084284254211,0
1372,0.05488000000000004,4.999392411494816,0.004082004499051814,-0.010869718992941674,0
1373,0.05492000000000008,4.99972120164681,-0.0031513717215847087,-0.0036515465074775724,0
1374,0.0549599999999999,4.99972120164681,-0.006110480157705198,-0.0007075997249730917,0
1375,0.05499999999999994,4.99972120164681,-0.010713537704454032,0.003880338425964516,0
1376,0.05503999999999998,4.999392411494816,-0.01597417487006185,0.009125898629136648,0
1377,0.05508000000000002,4.999392411494816,-0.0228787611001723,0.01601545050507845,0
1378,0.05512000000000006,5.000049991798719,-0.026824238920549456,0.019945936753764597,0
1379,0.0551600000000001,5.000049991798719,-0.029783347273691016,0.022890096491220837,0
1380,0.055199999999999916,4.999392411494816,-0.03438640469119987,0.02747824842189397,0
1381,0.055239999999999956,5.000378781950543,-0.035372774134525484,0.028449755679391606,0
1382,0.055279999999999996,5.000378781950543,-0.03668793339048888,0.02975009622200564,0
