,seconds,Trig,EMG_amplitude,EMG_amplitude_filter,peaks
0,0.0,5.000049991798719,0.02019270630239349,-0.022191494780932772,0
1,4.0000000000040004e-05,5.000707572102282,0.020521496138282788,-0.022553301976044632,0
2,8.000000000008001e-05,5.000049991798719,0.020521496138282788,-0.02258628186271331,0
3,0.00011999999999989797,5.000378781950543,0.020521496138282788,-0.022619224088242736,0
4,0.00015999999999993797,5.001036362253937,0.019863916466630674,-0.021994548792652426,0
5,0.00019999999999997797,5.000707572102282,0.021507865646709548,-0.023671364311256184,0
6,0.00024000000000001798,5.000707572102282,0.02085028597429857,-0.02304661275202504,0
7,0.000280000000000058,5.000049991798719,0.021836655483104705,-0.024065771961121078,0
8,0.000320000000000098,5.000378781950543,0.021507865646709548,-0.023769733224846375,0
9,0.00035999999999991594,5.000378781950543,0.020521496138282788,-0.02281607602935856,0
10,0.00039999999999995595,5.000707572102282,0.02085028597429857,-0.02317753920438929,0
11,0.00043999999999999595,5.000378781950543,0.02117907581044083,-0.02353896321915173,0
12,0.00048000000000003595,5.000049991798719,0.02117907581044083,-0.02357155805118016,0
13,0.000520000000000076,5.000049991798719,0.022494235156274286,-0.02491927269652919,0
14,0.0005599999999998939,5.000378781950543,0.022823024993048696,-0.025280578114663162,0
15,0.0005999999999999339,5.000378781950543,0.02315181482994949,-0.02564184362940437,0
16,0.0006399999999999739,5.000378781950543,0.02315181482994949,-0.025674279218644597,0
17,0.0006800000000000139,5.000378781950543,0.023809394504130166,-0.026364254208668468,0
18,0.0007200000000000539,5.000378781950543,0.022823024993048696,-0.02541023955552269,0
19,0.0007600000000000939,5.001036362253937,0.02315181482994949,-0.025771343608229632,0
20,0.0007999999999999119,4.99972120164681,0.02315181482994949,-0.025803616997974666,0
21,0.0008399999999999519,5.000378781950543,0.02315181482994949,-0.025835849378019603,0
22,0.0008799999999999919,4.99972120164681,0.022823024993048696,-0.02553925072811938,0
23,0.0009200000000000319,4.99972120164681,0.02216544531962629,-0.02491382086560579,0
24,0.0009600000000000719,5.000707572102282,0.02117907581044083,-0.023959559608489004,0
25,0.001000000000000112,5.000707572102282,0.02117907581044083,-0.023991626119270297,0
26,0.0010399999999999299,4.99972120164681,0.02085028597429857,-0.023694860870478,0
27,0.0010799999999999699,4.99972120164681,0.020521496138282788,-0.023398053516542294,0
28,0.0011200000000000099,5.000049991798719,0.019206336795484613,-0.022114834369023197,0
29,0.0011600000000000499,4.999392411494816,0.02019270630239349,-0.023133101603188617,0
30,0.0012000000000000899,5.000378781950543,0.01953512663099438,-0.02250737701011358,0
31,0.0012399999999999078,5.000707572102282,0.019206336795484613,-0.022210399423399193,0
32,0.0012799999999999478,5.000378781950543,0.019206336795484613,-0.022242168662385493,0
33,0.0013199999999999878,5.000049991798719,0.018877546960101396,-0.021945104876216995,0
34,0.0013600000000000279,5.000049991798719,0.01821996728971463,-0.021319207885630864,0
35,0.0014000000000000679,4.99972120164681,0.01756238761983417,-0.020693267346816535,0
36,0.0014400000000001079,4.99972120164681,0.016904807950460177,-0.020067283080777928,0
37,0.0014799999999999258,5.000049991798719,0.01789117745471111,-0.02108520408196351,0
38,0.0015199999999999658,5.000378781950543,0.017233597785083862,-0.020459131824528555,0
39,0.0015600000000000058,4.99972120164681,0.017233597785083862,-0.020490594973967317,0
40,0.0016000000000000458,5.000378781950543,0.01821996728971463,-0.021508383187604663,0
41,0.0016400000000000858,5.000049991798719,0.018877546960101396,-0.022197336949221807,0
42,0.0016799999999999038,5.000378781950543,0.018877546960101396,-0.022228666245668702,0
43,0.0017199999999999438,4.99972120164681,0.018877546960101396,-0.022259950570663684,0
44,0.0017599999999999838,5.000049991798719,0.018548757124844717,-0.021962399912622606,0
45,0.0018000000000000238,5.000378781950543,0.01789117745471111,-0.021336014095940783,0
46,0.0018400000000000638,5.000049991798719,0.018548757124844717,-0.022024742120123016,0
47,0.0018800000000001038,5.000049991798719,0.01756238761983417,-0.02106947529446581,0
48,0.0019199999999999218,5.000049991798719,0.018548757124844717,-0.022086901629191608,0
49,0.0019599999999999618,5.000378781950543,0.01821996728971463,-0.021789122599547246,0
50,0.0020000000000000018,5.001036362253937,0.01789117745471111,-0.021491297371561975,0
51,0.0020400000000000418,5.000378781950543,0.01821996728971463,-0.021851005441233876,0
52,0.002080000000000082,5.000049991798719,0.017233597785083862,-0.02089550762539688,0
53,0.0021199999999998997,5.000378781950543,0.01821996728971463,-0.021912702099781797,0
54,0.0021599999999999397,5.001036362253937,0.017233597785083862,-0.020957110673062315,0
55,0.0021999999999999797,5.000378781950543,0.016247228281592724,-0.020001472183200218,0
56,0.0022400000000000198,5.000378781950543,0.016576018115963126,-0.020360945794843956,0
57,0.0022800000000000598,5.000707572102282,0.016904807950460177,-0.02072037199855319,0
58,0.0023200000000000998,5.000049991798719,0.016247228281592724,-0.020093381119501416,0
59,0.0023599999999999177,5.000049991798719,0.016904807950460177,-0.020781501827824886,0
60,0.0023999999999999577,5.000049991798719,0.016904807950460177,-0.02081199494633231,0
61,0.0024399999999999977,5.000378781950543,0.017233597785083862,-0.021171229808302244,0
62,0.0024800000000000377,5.000707572102282,0.016904807950460177,-0.02087283674002943,0
63,0.0025200000000000777,5.000049991798719,0.016576018115963126,-0.02057439524143406,0
64,0.0025599999999998957,4.99972120164681,0.015918438447348998,-0.01994711530920107,0
65,0.0025999999999999357,5.000378781950543,0.016576018115963126,-0.02063494594598895,0
66,0.0026399999999999757,4.999392411494816,0.015589648613231935,-0.019678778474923834,0
67,0.0026800000000000157,5.000378781950543,0.016247228281592724,-0.020366511070531338,0
68,0.0027200000000000557,5.000378781950543,0.016247228281592724,-0.02039661472583767,0
69,0.0027600000000000957,5.000049991798719,0.017233597785083862,-0.021413038445566454,0
70,0.0027999999999999137,4.99972120164681,0.01756238761983417,-0.021771832890752154,0
71,0.0028399999999999537,5.000378781950543,0.016904807950460177,-0.021144208059674558,0
72,0.0028799999999999937,5.000049991798719,0.015918438447348998,-0.020187743456782876,0
73,0.0029200000000000337,5.000049991798719,0.016904807950460177,-0.02120396775649964,0
74,0.0029600000000000737,4.999392411494816,0.015260858779241576,-0.019589823113138637,0
75,0.0029999999999998916,5.001036362253937,0.016904807950460177,-0.02126352637873776,0
76,0.0030399999999999316,4.999392411494816,0.016904807950460177,-0.021293229875319106,0
77,0.0030799999999999716,4.999392411494816,0.014603279111640999,-0.019021353771369,0
78,0.0031200000000000117,5.000049991798719,0.016247228281592724,-0.020694904750975462,0
79,0.0031600000000000517,5.001365152405508,0.013616909611190692,-0.018094136801924846,0
80,0.0032000000000000917,5.000378781950543,0.015918438447348998,-0.020425165108457325,0
81,0.0032399999999999096,4.999392411494816,0.014932068945377922,-0.019468243663626362,0
82,0.0032799999999999496,5.000049991798719,0.016247228281592724,-0.020812799481909474,0
83,0.0033199999999999896,4.999392411494816,0.015918438447348998,-0.02051335439324562,0
84,0.0033600000000000296,5.000378781950543,0.014603279111640999,-0.019227487905635526,0
85,0.0034000000000000696,5.000049991798719,0.015918438447348998,-0.020571888031391025,0
86,0.0034400000000001096,5.000378781950543,0.016576018115963126,-0.02125865627186093,0
87,0.0034799999999999276,5.000049991798719,0.015589648613231935,-0.020301422963081572,0
88,0.0035199999999999676,5.000707572102282,0.015260858779241576,-0.02000171678585799,0
89,0.0035600000000000076,5.000378781950543,0.015589648613231935,-0.020359537580582034,0
90,0.0036000000000000476,5.000378781950543,0.014932068945377922,-0.01973093601901566,0
91,0.0036400000000000876,5.000049991798719,0.015260858779241576,-0.020088650946744977,0
92,0.0036799999999999056,5.000378781950543,0.014274489278030808,-0.01913115336944099,0
93,0.0037199999999999456,4.99972120164681,0.01328811977796078,-0.018173602466222925,0
94,0.0037599999999999856,5.000378781950543,0.01328811977796078,-0.018202367579367107,0
95,0.0038000000000000256,5.000049991798719,0.01328811977796078,-0.0182310790525955,0
96,0.0038400000000000656,4.99972120164681,0.01328811977796078,-0.018259736730147063,0
97,0.0038800000000001056,5.000049991798719,0.01328811977796078,-0.018288340456709663,0
98,0.0039199999999999235,5.000378781950543,0.011972960446309217,-0.017001730745770497,0
99,0.0039599999999999635,5.000049991798719,0.01065780111668721,-0.015715066776602275,0
100,0.0040000000000000036,5.000378781950543,0.01032901128459894,-0.015414717890755577,0
101,0.0040400000000000436,5.000049991798719,0.009671431620803153,-0.01478552460549232,0
102,0.0040800000000000836,5.000049991798719,0.009671431620803153,-0.014813856263277754,0
103,0.0041199999999999015,5.000049991798719,0.009671431620803153,-0.014842133047738716,0
104,0.0041599999999999415,4.999063621342738,0.009342641789095676,-0.014541564975052984,0
105,0.0041999999999999815,5.000378781950543,0.009342641789095676,-0.014569731556985334,0
106,0.0042400000000000215,4.99972120164681,0.007041112970698912,-0.012296313992247884,0
107,0.0042800000000000615,5.000049991798719,0.007369902801517392,-0.012653159597737478,0
108,0.0043200000000001015,5.000378781950543,0.006383533309443135,-0.0116947902511014,0
109,0.0043599999999999195,5.000378781950543,0.005397163818512657,-0.010736365126603755,0
110,0.0043999999999999595,4.999392411494816,0.004410794328726292,-0.009777884074946753,0
111,0.0044399999999999995,5.000049991798719,0.003424424840084442,-0.0088193469473089,0
112,0.0044800000000000395,4.99972120164681,0.0030956350107915753,-0.008518333253550944,0
113,0.0045200000000000795,5.000049991798719,0.0014516858662357995,-0.006902103871197359,0
114,0.0045599999999998975,5.000707572102282,0.0007941062093044515,-0.006272187455753871,0
115,0.0045999999999999375,5.000707572102282,0.004739584158527918,-0.010245271978853198,0
116,0.0046399999999999775,4.999392411494816,-0.0015074225859438989,-0.004025814994233462,0
117,0.0046800000000000175,5.003666683464122,0.00013652655288240445,-0.005697256932964056,0
118,0.0047200000000000575,5.001036362253937,-0.00348016154833046,-0.002108004526273407,0
119,0.0047600000000000975,4.999392411494816,-0.006439269983302923,0.0008237254645016151,0
120,0.0047999999999999154,5.003995473615012,-0.003808951374948702,-0.0018339141932761024,0
121,0.0048399999999999554,4.998077250885994,-0.00808321910937683,0.002413090030456217,0
122,0.0048799999999999955,5.000378781950543,-0.0047953208540382625,-0.0009020140533940457,0
123,0.0049200000000000355,4.99972120164681,-0.006768059808773,0.001043576897970258,0
124,0.0049600000000000755,4.999063621342738,-0.00348016154833046,-0.0022714113982454237,0
125,0.004999999999999893,5.000378781950543,-0.0031513717215847087,-0.0026272331512140236,0
126,0.005039999999999933,5.001036362253937,-0.0015074225859438989,-0.004298155962079284,0
127,0.005079999999999973,5.000378781950543,-0.006439269983302923,0.000606776151994979,0
128,0.005120000000000013,5.000378781950543,-0.007754429284417372,0.001895078702196993,0
129,0.005160000000000053,5.002351522859708,-0.00808321910937683,0.0021970704485384067,0
130,0.0052000000000000934,4.99972120164681,-0.007425639459330238,0.0015127515315777815,0
131,0.005239999999999911,4.99972120164681,-0.014987805404005308,0.009048237159938115,0
132,0.005279999999999951,5.000378781950543,-0.014659015581730453,0.008692826110326977,0
133,0.005319999999999991,5.000049991798719,-0.014659015581730453,0.008666264109830249,0
134,0.005360000000000031,5.000049991798719,-0.017618123977595282,0.011598869869379119,0
135,0.005400000000000071,5.000049991798719,-0.017289334156344746,0.011243636912812851,0
136,0.005440000000000111,5.000049991798719,-0.01301506646843685,0.0069429857268852695,0
137,0.005479999999999929,5.000049991798719,-0.014659015581730453,0.008560611115225509,0
138,0.005519999999999969,5.000049991798719,-0.0116999071754995,0.005575238892350481,0
139,0.005560000000000009,5.000378781950543,-0.010384747880516562,0.004233875823746548,0
140,0.005600000000000049,5.000378781950543,-0.0031513717215847087,-0.0030256439316003903,0
141,0.005640000000000089,5.000049991798719,-0.001178632758433426,-0.005024466180310888,0
142,0.005679999999999907,5.000378781950543,0.0014516858662357995,-0.007680807646568182,0
143,0.005719999999999947,4.99972120164681,0.004410794328726292,-0.01066587837409683,0
144,0.005759999999999987,5.000049991798719,0.005725953648695714,-0.012006939250514069,0
145,0.005800000000000027,5.000378781950543,0.013616909611190692,-0.019923735929366245,0
146,0.005840000000000067,5.000378781950543,0.027097292882612076,-0.03342989894609591,0
147,0.005880000000000107,5.000049991798719,0.048139842803156765,-0.054498167510485473,0
148,0.005919999999999925,5.000378781950543,0.04715347326413659,-0.05353745538397788,0
149,0.005959999999999965,5.000049991798719,0.039920096679152195,-0.04632967485085223,0
150,0.006000000000000005,5.000378781950543,0.03202914047399413,-0.03846425320812666,0
151,0.006040000000000045,5.000049991798719,0.02117907581044083,-0.027639661489358043,0
152,0.006080000000000085,4.99972120164681,0.01756238761983417,-0.02404838449821932,0
153,0.006119999999999903,5.000378781950543,0.012630540111881347,-0.019141886317303236,0
154,0.006159999999999943,5.000707572102282,0.009342641789095676,-0.015879275322564952,0
155,0.006199999999999983,5.001036362253937,0.004082004499051814,-0.010643863235579032,0
156,0.006240000000000023,5.000378781950543,0.0014516858662357995,-0.00803870755539126,0
157,0.006280000000000063,4.99972120164681,-0.0005210531030302584,-0.00609106916344509,0
158,0.006320000000000103,5.000049991798719,-0.0018362124133269458,-0.004800947930844662,0
159,0.006359999999999921,5.000378781950543,-0.0015074225859438989,-0.0051547132125502135,0
160,0.006399999999999961,5.000378781950543,-0.0028225818947114484,-0.0038644666115482257,0
161,0.006440000000000001,5.000049991798719,-0.0031513717215847087,-0.003560526623269061,0
162,0.006480000000000041,5.000378781950543,-0.0015074225859438989,-0.005229262606288402,0
163,0.006520000000000081,5.000049991798719,-0.0005210531030302584,-0.006240355823893059,0
164,0.006559999999999899,5.000378781950543,0.0004653163810297567,-0.007251385809058514,0
165,0.006599999999999939,5.000378781950543,0.001780475694892425,-0.008591142270118594,0
166,0.006639999999999979,5.000049991798719,0.0024380553525874815,-0.009273255601357944,0
167,0.006680000000000019,5.000378781950543,0.003753214669504526,-0.010612884999000139,0
168,0.006720000000000059,5.000707572102282,0.0024380553525874815,-0.009322132051403849,0
169,0.006760000000000099,5.000378781950543,0.0030956350107915753,-0.010004054249521515,0
170,0.006799999999999917,5.000378781950543,0.0030956350107915753,-0.010028332842609324,0
171,0.006839999999999957,5.000378781950543,0.004410794328726292,-0.011367706689973393,0
172,0.006879999999999997,5.000049991798719,0.007041112970698912,-0.014022175681471799,0
173,0.006920000000000037,4.99972120164681,0.008356272294735026,-0.0153614210594743,0
174,0.006960000000000077,5.000378781950543,0.009013851957515154,-0.01604302236559654,0
175,0.006999999999999895,5.000049991798719,0.01032901128459894,-0.01738213881092591,0
176,0.007039999999999935,5.001036362253937,0.01065780111668721,-0.017734821122285298,0
177,0.007079999999999975,5.000707572102282,0.010986590948902406,-0.018087438681515182,0
178,0.007120000000000015,5.000378781950543,0.01065780111668721,-0.0177824117113739,0
179,0.007160000000000055,5.000049991798719,0.01065780111668721,-0.017806109596421975,0
180,0.007200000000000095,4.99972120164681,0.010986590948902406,-0.018158532225175293,0
181,0.007239999999999913,4.99972120164681,0.011972960446309217,-0.01916846931972876,0
182,0.007279999999999953,5.000707572102282,0.011972960446309217,-0.019191971607206707,0
183,0.007319999999999993,5.000049991798719,0.013616909611190692,-0.020859357640226076,0
184,0.007360000000000033,5.000049991798719,0.013945699444547363,-0.021211518813316774,0
185,0.007400000000000073,5.000378781950543,0.014603279111640999,-0.021892404183285943,0
186,0.007440000000000113,5.000049991798719,0.014274489278030808,-0.021586854307848957,0
187,0.007479999999999931,5.000049991798719,0.013616909611190692,-0.02095244874724833,0
188,0.007519999999999971,5.000707572102282,0.014274489278030808,-0.02163313656177688,0
189,0.007560000000000011,5.000049991798719,0.013945699444547363,-0.02132738881142913,0
190,0.007600000000000051,5.000049991798719,0.014603279111640999,-0.02200794439172133,0
191,0.007640000000000091,5.000378781950543,0.014932068945377922,-0.02235964386395421,0
192,0.007679999999999909,5.000049991798719,0.014932068945377922,-0.022382487123602576,0
193,0.007719999999999949,5.000049991798719,0.014274489278030808,-0.021747684233533317,0
194,0.007759999999999989,5.000049991798719,0.014274489278030808,-0.02177039442554141,0
195,0.007800000000000029,5.000049991798719,0.012630540111881347,-0.02014908876385625,0
196,0.00784000000000007,4.99972120164681,0.012630540111881347,-0.02017166547912951,0
197,0.00788000000000011,5.000049991798719,0.01328811977796078,-0.020851754970272248,0
198,0.007919999999999927,5.000049991798719,0.014603279111640999,-0.022189357138416826,0
199,0.007959999999999967,5.000049991798719,0.013945699444547363,-0.021554153215431086,0
200,0.008000000000000007,5.000378781950543,0.013616909611190692,-0.02124767193670134,0
201,0.008040000000000047,4.99972120164681,0.01328811977796078,-0.02094112337012742,0
202,0.008080000000000087,5.000049991798719,0.013945699444547363,-0.021620876917545207,0
203,0.008119999999999905,5.000049991798719,0.013945699444547363,-0.021642983315335398,0
204,0.008159999999999945,5.000049991798719,0.014603279111640999,-0.02232260180060115,0
205,0.008199999999999985,5.000378781950543,0.014603279111640999,-0.022344572943218836,0
206,0.008240000000000025,5.000378781950543,0.014932068945377922,-0.022695266148724885,0
207,0.008280000000000065,5.000049991798719,0.016576018115963126,-0.02436105082558021,0
208,0.008320000000000105,5.000378781950543,0.015918438447348998,-0.023725238703731957,0
209,0.008359999999999923,5.000049991798719,0.015918438447348998,-0.02374693819763502,0
210,0.008399999999999963,4.99972120164681,0.015918438447348998,-0.023768569545964912,0
211,0.008440000000000003,5.000049991798719,0.016576018115963126,-0.024447712325275036,0
212,0.008480000000000043,5.000049991798719,0.01756238761983417,-0.025455576610798558,0
213,0.008520000000000083,4.999392411494816,0.018877546960101396,-0.02679216231291772,0
214,0.008559999999999901,5.000378781950543,0.019206336795484613,-0.027142310000249418,0
215,0.008599999999999941,5.000707572102282,0.02117907581044083,-0.029136338267803312,0
216,0.008639999999999981,5.000049991798719,0.022494235156274286,-0.030472718178093296,0
217,0.008680000000000021,5.000378781950543,0.023480604666976643,-0.03148023947697913,0
218,0.008720000000000061,5.000049991798719,0.023480604666976643,-0.031501322401417536,0
219,0.008760000000000101,5.000049991798719,0.02216544531962629,-0.0302071770279499,0
220,0.008799999999999919,5.000707572102282,0.02117907581044083,-0.029241752455943647,0
221,0.008839999999999959,5.000049991798719,0.02216544531962629,-0.030248997780121176,0
222,0.008879999999999999,5.000378781950543,0.021836655483104705,-0.029941014551586577,0
223,0.008920000000000039,4.99972120164681,0.02117907581044083,-0.029304172195753778,0
224,0.008960000000000079,5.000049991798719,0.021507865646709548,-0.02965362997421538,0
225,0.008999999999999897,5.000378781950543,0.020521496138282788,-0.02868785895053091,0
226,0.009039999999999937,4.99972120164681,0.02117907581044083,-0.02936596756783959,0
227,0.009079999999999977,5.000707572102282,0.02216544531962629,-0.03037279640111571,0
228,0.009120000000000017,5.000049991798719,0.022494235156274286,-0.030721975860000198,0
229,0.009160000000000057,4.99972120164681,0.022823024993048696,-0.031071085537038218,0
230,0.009200000000000097,5.000049991798719,0.021836655483104705,-0.03010496600594309,0
231,0.009239999999999915,5.000049991798719,0.02117907581044083,-0.029467566371949618,0
232,0.009279999999999955,5.000049991798719,0.021836655483104705,-0.030145256065021237,0
233,0.009319999999999995,4.99972120164681,0.021507865646709548,-0.029836506153367845,0
234,0.009360000000000035,5.000378781950543,0.02019270630239349,-0.028541316561406436,0
235,0.009400000000000075,5.000049991798719,0.019206336795484613,-0.02757484655842743,0
236,0.009439999999999893,4.99972120164681,0.01821996728971463,-0.026608306232809638,0
237,0.009479999999999933,4.999392411494816,0.018877546960101396,-0.027285644684904055,0
238,0.009519999999999973,5.000378781950543,0.016904807950460177,-0.02533259398454644,0
239,0.009560000000000013,5.000049991798719,0.016576018115963126,-0.02502342191361812,0
240,0.009600000000000053,5.000378781950543,0.015589648613231935,-0.02405659955613996,0
241,0.009640000000000093,5.000378781950543,0.015589648613231935,-0.02407607601116775,0
242,0.009679999999999911,5.000378781950543,0.015260858779241576,-0.02376669187076295,0
243,0.009719999999999951,5.000378781950543,0.014603279111640999,-0.023128447064782533,0
244,0.009759999999999991,4.99972120164681,0.01328811977796078,-0.021832551690928972,0
245,0.009800000000000031,4.99972120164681,0.011972960446309217,-0.020536585348178805,0
246,0.009840000000000071,4.999392411494816,0.011644170613713423,-0.020226917465124988,0
247,0.009880000000000111,4.99972120164681,0.012630540111881347,-0.02123233780574013,0
248,0.009919999999999929,5.000049991798719,0.011972960446309217,-0.02059373780848517,0
249,0.009959999999999969,5.000049991798719,0.011315380781244458,-0.019955066571273494,0
250,0.010000000000000009,5.000049991798719,0.011644170613713423,-0.0203026935254999,0
251,0.010040000000000049,5.000049991798719,0.01065780111668721,-0.019335089779207597,0
252,0.010080000000000089,4.99972120164681,0.01065780111668721,-0.019353784094694966,0
253,0.010119999999999907,5.000049991798719,0.009671431620803153,-0.018386037415534812,0
254,0.010159999999999947,4.99972120164681,0.009342641789095676,-0.018075798838978092,0
255,0.010199999999999987,4.99972120164681,0.011315380781244458,-0.020067017462603233,0
256,0.010240000000000027,5.000049991798719,0.010986590948902406,-0.0197566355766715,0
257,0.010280000000000067,4.99972120164681,0.01032901128459894,-0.019117392113031487,0
258,0.010320000000000107,5.000049991798719,0.011644170613713423,-0.0204508158370937,0
259,0.010359999999999925,4.99972120164681,0.012301750279031881,-0.02112658803238845,0
260,0.010399999999999965,5.000378781950543,0.011972960446309217,-0.020815918806129173,0
261,0.010440000000000005,5.000378781950543,0.01328811977796078,-0.022149126762905168,0
262,0.010480000000000045,5.000049991798719,0.013616909611190692,-0.02249589318281104,0
263,0.010520000000000085,5.000049991798719,0.014603279111640999,-0.023500167175096967,0
264,0.010559999999999903,5.000378781950543,0.017233597785083862,-0.02614831818986197,0
265,0.010599999999999943,4.999392411494816,0.015918438447348998,-0.02485091898798246,0
266,0.010639999999999983,5.000049991798719,0.01756238761983417,-0.026512556036623808,0
267,0.010680000000000023,4.99972120164681,0.01789117745471111,-0.02685896143444738,0
268,0.010720000000000063,5.000049991798719,0.017233597785083862,-0.02621892496176996,0
269,0.010760000000000103,5.000049991798719,0.01756238761983417,-0.026565185575410207,0
270,0.01079999999999992,5.000049991798719,0.016904807950460177,-0.025925004215528402,0
271,0.01083999999999996,4.99972120164681,0.01789117745471111,-0.026928699509262136,0
272,0.01088,5.000049991798719,0.018548757124844717,-0.0276035323989848,0
273,0.01092000000000004,4.999392411494816,0.018548757124844717,-0.02762071299952407,0
274,0.01096000000000008,4.99972120164681,0.017233597785083862,-0.026322661592825983,0
275,0.010999999999999899,5.001036362253937,0.02019270630239349,-0.029298805328025503,0
276,0.011039999999999939,4.999392411494816,0.01821996728971463,-0.027343028771098624,0
277,0.011079999999999979,5.000378781950543,0.01821996728971463,-0.027359918418480015,0
278,0.011120000000000019,4.99972120164681,0.015589648613231935,-0.024746416535508766,0
279,0.011160000000000059,5.000049991798719,0.016904807950460177,-0.026078319767613475,0
280,0.011200000000000099,5.000378781950543,0.01756238761983417,-0.026752570389199207,0
281,0.011239999999999917,5.001036362253937,0.016904807950460177,-0.02611158868607879,0
282,0.011279999999999957,5.000049991798719,0.015589648613231935,-0.024812954286589767,0
283,0.011319999999999997,4.99972120164681,0.016904807950460177,-0.026144565491224892,0
284,0.011360000000000037,5.000378781950543,0.016904807950460177,-0.02616094424722059,0
285,0.011400000000000077,5.000049991798719,0.015589648613231935,-0.024862090514238093,0
286,0.011439999999999895,5.000049991798719,0.016904807950460177,-0.026193482264364402,0
287,0.011479999999999935,4.999392411494816,0.016576018115963126,-0.025880851612561963,0
288,0.011519999999999975,5.000049991798719,0.014274489278030808,-0.023595408689007898,0
289,0.011560000000000015,5.000378781950543,0.014603279111640999,-0.023940211131310844,0
290,0.011600000000000055,4.999392411494816,0.013945699444547363,-0.0232985707306,0
291,0.011640000000000095,5.000378781950543,0.014603279111640999,-0.023972016285887528,0
292,0.011679999999999913,5.000378781950543,0.01328811977796078,-0.02267264942707976,0
293,0.011719999999999953,5.000707572102282,0.014274489278030808,-0.023674737954315583,0
294,0.011759999999999993,5.000378781950543,0.012630540111881347,-0.02204643433398823,0
295,0.011800000000000033,5.000049991798719,0.012630540111881347,-0.02206200636557861,0
296,0.011840000000000073,5.000049991798719,0.01295932994485767,-0.022406294683775405,0
297,0.011880000000000113,5.000378781950543,0.011972960446309217,-0.02143535009269002,0
298,0.01191999999999993,5.000378781950543,0.011315380781244458,-0.020793121726694924,0
299,0.01195999999999997,4.99972120164681,0.011644170613713423,-0.021137189219956498,0
300,0.01200000000000001,5.000378781950543,0.010986590948902406,-0.02049481354853058,0
301,0.01204000000000005,5.000049991798719,0.010000221452637598,-0.0195235743498669,0
302,0.01208000000000009,4.99972120164681,0.010986590948902406,-0.02052500042032721,0
303,0.012119999999999909,5.000378781950543,0.009013851957515154,-0.018567244252863754,0
304,0.012159999999999949,5.000378781950543,0.009013851957515154,-0.018582153300406187,0
305,0.012199999999999989,5.000049991798719,0.005725953648695714,-0.015309090237395344,0
306,0.012240000000000029,5.000049991798719,0.0021092655236763236,-0.011707163531856182,0
307,0.012280000000000069,4.999392411494816,0.003424424840084442,-0.01303701041758032,0
308,0.012320000000000109,5.000378781950543,0.006712323140007484,-0.01633952241357879,0
309,0.012359999999999927,5.000707572102282,0.008356272294735026,-0.017998011368825,0
310,0.012399999999999967,5.000378781950543,0.008027482463535476,-0.017683687421032084,0
311,0.012440000000000007,5.000378781950543,0.009342641789095676,-0.019013238692093263,0
312,0.012480000000000047,4.99972120164681,0.009342641789095676,-0.019027556679657328,0
313,0.012520000000000087,5.000378781950543,0.009342641789095676,-0.019041800690016243,0
314,0.012559999999999905,5.000378781950543,0.010000221452637598,-0.019713550368207433,0
315,0.012599999999999945,5.000707572102282,0.011315380781244458,-0.021042805698013846,0
316,0.012639999999999985,4.99972120164681,0.011972960446309217,-0.02171440733385346,0
317,0.012680000000000025,4.99972120164681,0.01065780111668721,-0.020413195928372388,0
318,0.012720000000000065,5.000707572102282,0.012301750279031881,-0.022071018952781272,0
319,0.012760000000000105,5.000049991798719,0.011644170613713423,-0.021427239072774572,0
320,0.012799999999999923,4.99972120164681,0.012301750279031881,-0.02209854443274429,0
321,0.012839999999999963,5.000049991798719,0.011315380781244458,-0.0211258265258079,0
322,0.012880000000000003,4.999063621342738,0.009671431620803153,-0.019495454840046597,0
323,0.012920000000000043,5.001036362253937,0.011972960446309217,-0.02181048701246037,0
324,0.012960000000000083,4.998734831190575,0.011972960446309217,-0.021823916220764697,0
325,0.0129999999999999,4.999063621342738,0.012301750279031881,-0.022166061113127952,0
326,0.01303999999999994,5.001693942556992,0.015260858779241576,-0.025138450515025487,0
327,0.01307999999999998,4.999063621342738,0.010000221452637598,-0.019891019923639487,0
328,0.01312000000000002,5.002680313010939,0.014603279111640999,-0.024507210143646315,0
329,0.01316000000000006,5.001036362253937,0.010000221452637598,-0.01991721086446012,0
330,0.0132000000000001,4.999063621342738,0.010986590948902406,-0.020916564553157744,0
331,0.013239999999999919,4.99972120164681,0.010000221452637598,-0.01994310505651727,0
332,0.013279999999999959,5.000707572102282,0.010000221452637598,-0.019955940858683623,0
333,0.013319999999999999,5.000049991798719,0.006054743479005864,-0.016023224485885886,0
334,0.013360000000000039,5.000049991798719,0.006054743479005864,-0.016035911882288756,0
335,0.013400000000000079,5.000049991798719,0.006383533309443135,-0.016377314902375137,0
336,0.013439999999999896,5.000049991798719,0.006054743479005864,-0.0160610640532872,0
337,0.013479999999999936,5.000378781950543,0.008027482463535476,-0.018046267810097463,0
338,0.013519999999999976,5.000049991798719,0.007369902801517392,-0.017401078711300016,0
339,0.013560000000000016,5.000049991798719,0.006383533309443135,-0.016427025574173075,0
340,0.013600000000000056,4.998406041038327,0.006712323140007484,-0.016768057552976577,0
341,0.013640000000000096,5.000049991798719,0.006054743479005864,-0.016122645835850016,0
342,0.013679999999999914,4.99972120164681,0.006054743479005864,-0.016134739578484353,0
343,0.013719999999999954,5.000049991798719,0.006054743479005864,-0.016146759123781097,0
344,0.013759999999999994,4.99972120164681,0.005725953648695714,-0.015829914646113413,0
345,0.013800000000000034,5.000378781950543,0.004739584158527918,-0.01485541632139771,0
346,0.013840000000000074,4.999392411494816,0.005725953648695714,-0.015853582796072088,0
347,0.013879999999999892,4.99972120164681,0.003424424840084442,-0.013563776798048117,0
348,0.013919999999999932,4.99972120164681,0.0027668451816259126,-0.012917845784065567,0
349,0.013959999999999972,5.000378781950543,0.0014516858662357995,-0.011614260955630179,0
350,0.014000000000000012,5.000378781950543,0.001122896037706475,-0.011296971465906865,0
351,0.014040000000000052,4.99972120164681,0.001122896037706475,-0.01130839766671951,0
352,0.014080000000000092,5.000378781950543,-0.0005210531030302584,-0.009675800599740568,0
353,0.01411999999999991,5.000378781950543,0.0007941062093044515,-0.011002237870500177,0
354,0.01415999999999995,5.000707572102282,0.0021092655236763236,-0.012328601040469808,0
355,0.01419999999999999,4.999392411494816,0.001122896037706475,-0.01135336132056039,0
356,0.01424000000000003,5.000049991798719,0.001780475694892425,-0.012021996668343611,0
357,0.01428000000000007,5.000049991798719,0.0014516858662357995,-0.011704188469679933,0
358,0.01432000000000011,5.000049991798719,0.0030956350107915753,-0.013359045199268092,0
359,0.014359999999999928,4.99972120164681,0.001122896037706475,-0.01139713978268378,0
360,0.014399999999999968,4.999392411494816,0.001780475694892425,-0.012065478985053342,0
361,0.014440000000000008,5.000049991798719,0.0014516858662357995,-0.011747374708263293,0
362,0.014480000000000048,4.99972120164681,0.0027668451816259126,-0.013073145600989025,0
363,0.014520000000000088,5.000378781950543,0.001780475694892425,-0.012097313736632465,0
364,0.014559999999999906,5.000049991798719,0.001780475694892425,-0.012107777424409332,0
365,0.014599999999999946,5.000707572102282,0.0021092655236763236,-0.012446957027515242,0
366,0.014639999999999986,5.000049991798719,0.001780475694892425,-0.01212848308153048,0
367,0.014680000000000026,4.99972120164681,0.0004653163810297567,-0.010823565781662998,0
368,0.014720000000000066,5.000049991798719,-0.0005210531030302584,-0.009847364466300256,0
369,0.014760000000000106,5.000378781950543,-0.001178632758433426,-0.009199879158589774,0
370,0.014799999999999924,5.000378781950543,-0.0015074225859438989,-0.008881109882848154,0
371,0.014839999999999964,4.999392411494816,-0.0024937920677107622,-0.007904687182794651,0
372,0.014880000000000004,4.99972120164681,-0.003808951374948702,-0.006599400913870625,0
373,0.014920000000000044,5.000049991798719,-0.007754429284417372,-0.0026637223267603014,0
374,0.014960000000000084,5.000049991798719,-0.00808321910937683,-0.0023446581364354527,0
375,0.014999999999999902,4.99972120164681,-0.007096849634115457,-0.00334067958762759,0
376,0.015039999999999942,4.99972120164681,-0.007096849634115457,-0.003350257934662565,0
377,0.015079999999999982,5.000378781950543,-0.005124110680146385,-0.005332501637367131,0
378,0.015120000000000022,4.99972120164681,-0.004466531027802631,-0.00599951247153154,0
379,0.015160000000000062,5.000049991798719,-0.0024937920677107622,-0.007981609078702254,0
380,0.015200000000000102,4.99972120164681,-0.00019226327513760522,-0.010292422016573924,0
381,0.01523999999999992,5.000049991798719,0.00506837398845672,-0.01556226995743638,0
382,0.01527999999999996,5.000049991798719,0.009342641789095676,-0.019845675001851568,0
383,0.01532,5.000378781950543,0.012630540111881347,-0.023142637170248614,0
384,0.01536000000000004,4.99972120164681,0.016904807950460177,-0.027425895492389607,0
385,0.01540000000000008,5.000049991798719,0.02019270630239349,-0.030722711002740103,0
386,0.015439999999999898,5.000049991798719,0.022823024993048696,-0.033361873564360406,0
387,0.015479999999999938,4.99972120164681,0.0264397132059056,-0.036987332399211835,0
388,0.015519999999999978,5.000049991798719,0.030713981113518377,-0.041270297719118665,0
389,0.015560000000000018,5.000378781950543,0.0323579303144281,-0.042922871162680606,0
390,0.015600000000000058,5.000378781950543,0.03400187951848738,-0.0445753714805974,0
391,0.0156400000000001,5.000378781950543,0.03268672015498804,-0.04326869014379639,0
392,0.015679999999999916,5.000378781950543,0.031042770953448276,-0.041633145924219565,0
393,0.015719999999999956,5.000049991798719,0.030385191273714543,-0.040983898224925416,0
394,0.015759999999999996,4.99972120164681,0.027426082721154613,-0.03803304869528193,0
395,0.015800000000000036,5.000049991798719,0.02315181482994949,-0.033766966914258324,0
396,0.015840000000000076,5.000049991798719,0.01821996728971463,-0.02884323261704618,0
397,0.015879999999999894,5.000049991798719,0.012630540111881347,-0.023261845861440637,0
398,0.015919999999999934,4.99972120164681,0.008356272294735026,-0.0189955456928785,0
399,0.015959999999999974,5.000378781950543,0.004410794328726292,-0.015057962649749256,0
400,0.016000000000000014,5.000707572102282,0.001122896037706475,-0.011777886604630392,0
401,0.016040000000000054,5.000378781950543,0.0024380553525874815,-0.013100795537947098,0
402,0.016080000000000094,4.99972120164681,0.00013652655288240445,-0.010806943779512706,0
403,0.016119999999999912,5.000378781950543,-0.0024937920677107622,-0.008184229674112184,0
404,0.016159999999999952,5.000049991798719,-0.0024937920677107622,-0.00819176171510032,0
405,0.016199999999999992,5.000378781950543,-0.005124110680146385,-0.0055689027221081915,0
406,0.016240000000000032,5.000049991798719,-0.005781690331979852,-0.0049187103216195415,0
407,0.016280000000000072,4.99972120164681,-0.006439269983302923,-0.004268445607774436,0
408,0.016320000000000112,5.000378781950543,-0.007425639459330238,-0.0032893188103756566,0
409,0.01635999999999993,5.000049991798719,-0.007754429284417372,-0.0029676994608703634,0
410,0.01639999999999997,5.000049991798719,-0.00874079875891258,-0.0019884283154980916,0
411,0.01644000000000001,5.000049991798719,-0.009727168232258263,-0.0010090850821889708,0
412,0.01648000000000005,5.000049991798719,-0.009727168232258263,-0.0010160392912961502,0
413,0.01652000000000009,5.000378781950543,-0.012028696998925656,0.0012786072382523044,0
414,0.016559999999999908,5.000378781950543,-0.012686276645394332,0.0019293765598653104,0
415,0.016599999999999948,4.99972120164681,-0.013343856291351444,0.002580217732721546,0
416,0.016639999999999988,5.000049991798719,-0.014987805404005308,0.004217500162737729,0
417,0.016680000000000028,4.99972120164681,-0.015316595226152155,0.004539695030635716,0
418,0.016720000000000068,5.000378781950543,-0.01564538504817102,0.004861961563937728,0
419,0.016760000000000108,5.000049991798719,-0.017618123977595282,0.006828248806538276,0
420,0.016799999999999926,5.000378781950543,-0.017289334156344746,0.006493078835936611,0
421,0.016839999999999966,5.000378781950543,-0.018933283261316228,0.008130719263827711,0
422,0.016880000000000006,5.000049991798719,-0.01926207308192608,0.008453271813645153,0
423,0.016920000000000046,5.000049991798719,-0.018275703619711994,0.007460736420163351,0
424,0.016960000000000086,4.99972120164681,-0.020248442542986647,0.009427380684151613,0
425,0.016999999999999904,5.000049991798719,-0.020248442542986647,0.009421357228523546,0
426,0.017039999999999944,5.000049991798719,-0.01991965272276132,0.009086615087226281,0
427,0.017079999999999984,4.999392411494816,-0.020577232363083744,0.009738313471151987,0
428,0.017120000000000024,4.99972120164681,-0.019590862902407788,0.008746133748095328,0
429,0.017160000000000064,5.000707572102282,-0.020248442542986647,0.009397974048872468,0
430,0.017200000000000104,4.99972120164681,-0.019590862902407788,0.00873472591885651,0
431,0.017239999999999922,5.000049991798719,-0.017289334156344746,0.006427599460729787,0
432,0.017279999999999962,5.000049991798719,-0.018275703619711994,0.007408441915639222,0
433,0.017320000000000002,5.000378781950543,-0.018933283261316228,0.008060565177848169,0
434,0.017360000000000042,5.000049991798719,-0.018275703619711994,0.007397599710592558,0
435,0.017400000000000082,4.99972120164681,-0.018275703619711994,0.0073922843625917195,0
436,0.0174399999999999,5.000378781950543,-0.017946913798717698,0.0070582495943796175,0
437,0.01747999999999994,5.000049991798719,-0.01926207308192608,0.008368234253512165,0
438,0.01751999999999998,5.000707572102282,-0.01860449344057817,0.007705550232816383,0
439,0.01756000000000002,4.999392411494816,-0.018275703619711994,0.0073717261981438575,0
440,0.01760000000000006,5.000049991798719,-0.0166317545134594,0.0057228129636681425,0
441,0.0176400000000001,5.000378781950543,-0.019590862902407788,0.008677027229247108,0
442,0.017679999999999918,5.000049991798719,-0.020248442542986647,0.00932978266981005,0
443,0.017719999999999958,5.000049991798719,-0.01926207308192608,0.0083386588498169,0
444,0.017759999999999998,4.99972120164681,-0.018275703619711994,0.007347604786714028,0
445,0.017800000000000038,5.000049991798719,-0.01696054433496612,0.006027830575314927,0
446,0.017840000000000078,5.000378781950543,-0.0166317545134594,0.005694495416814219,0
447,0.017879999999999896,5.000049991798719,-0.014987805404005308,0.004046070474681661,0
448,0.017919999999999936,5.000049991798719,-0.015316595226152155,0.0043704538823551,0
449,0.017959999999999976,4.99972120164681,-0.01564538504817102,0.004694906621229119,0
450,0.018000000000000016,5.000049991798719,-0.0166317545134594,0.005677008247059407,0
451,0.018040000000000056,5.000707572102282,-0.017289334156344746,0.006330389205767069,0
452,0.018080000000000096,4.99972120164681,-0.017946913798717698,0.0069838392300725395,0
453,0.018119999999999914,5.000378781950543,-0.017618123977595282,0.006650988767059541,0
454,0.018159999999999954,5.000378781950543,-0.018933283261316228,0.007962156294371189,0
455,0.018199999999999994,4.99972120164681,-0.018933283261316228,0.007958233331986012,0
456,0.018240000000000034,5.000049991798719,-0.020248442542986647,0.00926953835307744,0
457,0.018280000000000074,5.000049991798719,-0.02090602218305261,0.009923332341392681,0
458,0.018320000000000114,5.000378781950543,-0.022549971280973066,0.011563564302653564,0
459,0.018359999999999932,4.99972120164681,-0.024851500012672237,0.013861444318288781,0
460,0.018399999999999972,5.000049991798719,-0.027481818555480722,0.016488182470375805,0
461,0.018440000000000012,5.000049991798719,-0.026824238920549456,0.01582709067405568,0
462,0.018480000000000052,5.000378781950543,-0.03044092690630805,0.0194403346309922,0
463,0.018520000000000092,5.000378781950543,-0.03241366580107112,0.02140969753197911,0
464,0.01855999999999991,5.000049991798719,-0.035043984320212454,0.02403670799411511,0
465,0.01859999999999995,5.000378781950543,-0.0383318824575425,0.027321365912182177,0
466,0.01863999999999999,5.000378781950543,-0.039975831521371616,0.028962142494709638,0
467,0.01868000000000003,5.000049991798719,-0.04293493982813261,0.031918145957597635,0
468,0.01872000000000007,5.000049991798719,-0.04589404812443025,0.03487421694616752,0
469,0.01876000000000011,4.99972120164681,-0.046551627744407784,0.03552882669252932,0
470,0.018799999999999928,4.999392411494816,-0.050168315645034,0.03914261205086959,0
471,0.018839999999999968,4.99972120164681,-0.05181226468559495,0.04078372577694412,0
472,0.018880000000000008,5.000049991798719,-0.05312742391571186,0.0420961168160968,0
473,0.018920000000000048,5.000378781950543,-0.05542895256342596,0.04439494429134542,0
474,0.018960000000000088,5.000378781950543,-0.05838806081543309,0.04735141828361718,0
475,0.018999999999999906,5.000378781950543,-0.060689589448612954,0.049650379463278875,0
476,0.019039999999999946,4.99972120164681,-0.06364869768191721,0.052606986942026035,0
477,0.019079999999999986,5.000378781950543,-0.06430627728788789,0.05326213238440218,0
478,0.019120000000000026,5.000378781950543,-0.06627901610267752,0.055232503517819914,0
479,0.019160000000000066,5.000049991798719,-0.06759417530993413,0.05654536141644718,0
480,0.019200000000000106,5.000049991798719,-0.06858054471400928,0.05752949577441627,0
481,0.019239999999999924,5.000378781950543,-0.07022449371819571,0.05917127588406258,0
482,0.019279999999999964,5.000049991798719,-0.0715396529191989,0.06048433223039715,0
483,0.019320000000000004,5.000707572102282,-0.07088207331895803,0.05982471570292856,0
484,0.019360000000000044,5.000378781950543,-0.07614271010627514,0.0650833813772934,0
485,0.019400000000000084,4.99972120164681,-0.07482755091257769,0.0637663167710197,0
486,0.019439999999999902,5.000378781950543,-0.07943060808137585,0.0683675341129854,0
487,0.019479999999999942,5.000049991798719,-0.0820609264520449,0.07099607812720185,0
488,0.019519999999999982,5.000378781950543,-0.08699277337447438,0.07592621604746416,0
489,0.019560000000000022,5.000049991798719,-0.09192462026741856,0.08085641917570294,0
490,0.019600000000000062,5.000378781950543,-0.0971852569206733,0.08611547718416228,0
491,0.019640000000000102,5.000707572102282,-0.10441863226392899,0.09334733888425391,0
492,0.01967999999999992,4.99972120164681,-0.1103368484064295,0.09926410626621698,0
493,0.01971999999999996,5.000707572102282,-0.11263837689474214,0.10156425075688917,0
494,0.01976,5.001036362253937,-0.11954296232081356,0.10846751682776358,0
495,0.01980000000000004,4.99972120164681,-0.12414601923909123,0.11306931891211176,0
496,0.01984000000000008,5.000707572102282,-0.12743391702194856,0.11635602626041018,0
497,0.019879999999999898,5.000378781950543,-0.13039302501516953,0.11931400809582607,0
498,0.019919999999999938,4.999392411494816,-0.13269455344690018,0.12161447452317001,0
499,0.019959999999999978,4.999392411494816,-0.13532487164661305,0.12424379474786149,0
500,0.020000000000000018,5.000378781950543,-0.14091429779271097,0.1298322868235336,0
501,0.020040000000000058,5.001036362253937,-0.1468325136701073,0.13574963240961488,0
502,0.020080000000000098,5.000049991798719,-0.15143557043371902,0.14035188253482356,0
503,0.020119999999999916,5.000378781950543,-0.15636741693706202,0.145282985925764,0
504,0.020159999999999956,5.000049991798719,-0.16097047364631673,0.1498853629209937,0
505,0.020199999999999996,4.999392411494816,-0.1652447405670761,0.15415901339777244,0
506,0.020240000000000036,5.000378781950543,-0.1695190074651277,0.1584327269928458,0
507,0.020280000000000076,4.99972120164681,-0.1734644845816094,0.16237771381760238,0
508,0.020319999999999894,5.000378781950543,-0.178067541192985,0.16698034301805068,0
509,0.020359999999999934,4.99972120164681,-0.18398575679732287,0.17289819396109876,0
510,0.020399999999999974,5.000378781950543,-0.19056155186188928,0.17947368698214913,0
511,0.020440000000000014,5.000049991798719,-0.19779492637033497,0.1867068219322868,0
512,0.020480000000000054,5.000049991798719,-0.2046995110671092,0.19361122942269468,0
513,0.020520000000000094,4.99972120164681,-0.2132480444180765,0.20215964778527176,0
514,0.02055999999999991,4.99972120164681,-0.22278294689305583,0.21169449735517365,0
515,0.02059999999999995,5.000049991798719,-0.23297542872182958,0.22188698822682282,0
516,0.02063999999999999,5.000378781950543,-0.24382548987849312,0.23273712023825946,0
517,0.02068000000000003,4.99972120164681,-0.25533313033532373,0.24424489322501197,0
518,0.02072000000000007,5.000707572102282,-0.2658544014620183,0.2547663584193356,0
519,0.02076000000000011,4.99972120164681,-0.2773620415942758,0.26627425401879656,0
520,0.02079999999999993,5.000378781950543,-0.28886968155610887,0.2777822107085837,0
521,0.02083999999999997,5.000378781950543,-0.2970894242813169,0.28600233128298413,0
522,0.02088000000000001,5.000049991798719,-0.3043227978071483,0.29323614363904604,0
523,0.02092000000000005,5.000378781950543,-0.30761069484191084,0.2965245403441911,0
524,0.02096000000000009,5.000378781950543,-0.3089258536518853,0.2978402595231292,1
525,0.020999999999999908,5.000049991798719,-0.3069531154360811,0.2958681422326155,0
526,0.021039999999999948,5.000049991798719,-0.3010349007583592,0.2899506088935746,0
527,0.021079999999999988,4.999392411494816,-0.2914999992376794,0.2804164489813502,0
528,0.021120000000000028,5.000707572102282,-0.2770332518785735,0.2659505033561791,0
529,0.021160000000000068,5.000378781950543,-0.26158013508389405,0.25049824827594086,0
530,0.021200000000000108,5.000049991798719,-0.24053759257410445,0.22945662731544939,0
531,0.021239999999999926,5.000049991798719,-0.2171935213182073,0.20611353729738194,0
532,0.021279999999999966,5.000049991798719,-0.19154792111690433,0.1804689778754408,0
533,0.021320000000000006,4.999392411494816,-0.16623110985325845,0.15515326678501684,0
534,0.021360000000000046,5.001036362253937,-0.14551735458997894,0.1344406709404758,0
535,0.021400000000000086,5.001365152405508,-0.11888538275893985,0.10780991762467793,0
536,0.021439999999999904,4.998406041038327,-0.10310347311534969,0.09202928544314916,0
537,0.021479999999999944,5.001036362253937,-0.08370487542946127,0.0726320240157924,0
538,0.021519999999999984,4.999063621342738,-0.07449876111382696,0.0634273046041443,0
539,0.021560000000000024,4.99972120164681,-0.06233353846841526,0.05126353535649341,0
540,0.021600000000000064,5.000378781950543,-0.06101837925283336,0.04994988788010427,0
541,0.021640000000000104,4.999392411494816,-0.05575774236972354,0.04469082092461521,0
542,0.02167999999999992,5.000378781950543,-0.054113793336938706,0.043048499854215376,0
543,0.02171999999999996,4.998077250885994,-0.06167595886088427,0.050612351220988026,0
544,0.02176,4.997419670581074,-0.06331990787873677,0.05225804380713093,0
545,0.02180000000000004,5.002680313010939,-0.07088207331895803,0.059822010385471844,0
546,0.02184000000000008,4.99972120164681,-0.07712907950017713,0.06607087511835233,0
547,0.0218799999999999,5.000049991798719,-0.08502003460903816,0.07396374603547687,0
548,0.02191999999999994,5.000049991798719,-0.09225341005923197,0.08119909439294618,0
549,0.02195999999999998,5.000049991798719,-0.10178831396466272,0.09073602814642538,0
550,0.02200000000000002,5.000378781950543,-0.1103368484064295,0.09928664921812724,0
551,0.02204000000000006,5.000378781950543,-0.12052933166263081,0.1094812757266183,0
552,0.0220800000000001,5.000049991798719,-0.12842028635421754,0.11737443013267347,0
553,0.022119999999999918,4.99972120164681,-0.13894155915730816,0.12789795895159298,0
554,0.022159999999999958,5.000049991798719,-0.14781888297880097,0.13677759492881614,0
555,0.022199999999999998,4.99972120164681,-0.15702499646856433,0.14598607655211354,0
556,0.022240000000000038,4.99972120164681,-0.1655735303292713,0.15453703436142321,0
557,0.022280000000000078,5.000378781950543,-0.1734644845816094,0.16243046821406187,0
558,0.022319999999999895,5.000049991798719,-0.17839633094992902,0.16736484967037524,0
559,0.022359999999999935,5.000378781950543,-0.18398575679732287,0.17295686592881937,0
560,0.022399999999999975,5.000049991798719,-0.18530091581456487,0.1742746705149014,0
561,0.022440000000000015,5.000049991798719,-0.18891760310082228,0.1778940583618937,0
562,0.022480000000000055,5.000049991798719,-0.1912191313653681,0.18019834201254814,0
563,0.022520000000000095,4.99972120164681,-0.19056155186188928,0.17954357255340614,0
564,0.022559999999999913,5.000049991798719,-0.19056155186188928,0.17954643708820323,0
565,0.022599999999999953,5.000049991798719,-0.19056155186188928,0.1795493559450722,0
566,0.022639999999999993,5.000049991798719,-0.18858881334820277,0.1775795904413197,0
567,0.022680000000000033,5.000707572102282,-0.18793123384255755,0.1769250379290503,0
568,0.022720000000000073,4.99972120164681,-0.18464333630621427,0.1736402211992868,0
569,0.022760000000000113,5.000378781950543,-0.18299938753297212,0.17199940687497767,0
570,0.02279999999999993,4.99972120164681,-0.18004027973262504,0.1690434869944551,0
571,0.02283999999999997,5.000378781950543,-0.17708117192134348,0.16608762040181874,0
572,0.02288000000000001,5.000049991798719,-0.1754372231325772,0.1644469659578402,0
573,0.02292000000000005,5.000049991798719,-0.1734644845816094,0.16247757470451865,0
574,0.02296000000000009,5.000378781950543,-0.1695190074651277,0.15853549766465375,0
575,0.02299999999999991,5.000049991798719,-0.16754626889961982,0.156566211780243,0
576,0.02303999999999995,5.000378781950543,-0.16458716104228271,0.15361060903339302,0
577,0.02307999999999999,5.001036362253937,-0.1606416838822417,0.14966868923754062,0
578,0.02312000000000003,5.000049991798719,-0.15899773505985432,0.14802834985675822,0
579,0.02316000000000007,5.000049991798719,-0.15603862717110994,0.14507290331015552,0
580,0.02320000000000011,5.000049991798719,-0.1543946783393399,0.14343266754359146,0
581,0.023239999999999927,5.000378781950543,-0.15209314996923823,0.14113490378369697,0
582,0.023279999999999967,5.000049991798719,-0.1501204113610753,0.13916598115209058,0
583,0.023320000000000007,4.99972120164681,-0.14781888297880097,0.13686831993348345,0
584,0.023360000000000047,5.000378781950543,-0.1481476727480983,0.1372010278737349,0
585,0.023400000000000087,5.000378781950543,-0.14485977504911357,0.13391709917258457,0
586,0.023439999999999905,5.000049991798719,-0.14354461596578083,0.13260595973297926,0
587,0.023479999999999945,5.000049991798719,-0.14091429779271097,0.12997971166796393,0
588,0.023519999999999985,5.000049991798719,-0.13959913870297558,0.1286686729684677,0
589,0.023560000000000025,5.000378781950543,-0.1369688205171084,0.1260425252723073,0
590,0.023600000000000065,5.000378781950543,-0.13664003074327558,0.12571795590435925,0
591,0.023640000000000105,5.000049991798719,-0.13532487164661305,0.12440706694589931,0
592,0.023679999999999923,5.000049991798719,-0.1336809227727903,0.12276743775816791,0
593,0.023719999999999963,5.000378781950543,-0.13072181479152978,0.11981269882589139,0
594,0.023760000000000003,5.000378781950543,-0.1297354454620503,0.11883074772272778,0
595,0.023800000000000043,4.99972120164681,-0.12809149657692737,0.11719126605512883,0
596,0.023840000000000083,4.99972120164681,-0.126118757910398,0.11522304341064694,0
597,0.0238799999999999,5.000049991798719,-0.1251323885753416,0.114241238714918,0
598,0.02391999999999994,5.000378781950543,-0.12217328056301004,0.11128674377139364,0
599,0.02395999999999998,5.000049991798719,-0.12085812144297166,0.1099762459612871,0
600,0.02400000000000002,5.000378781950543,-0.11954296232081356,0.10866579620127766,0
601,0.02404000000000006,4.999392411494816,-0.11724143385193893,0.10636902495730995,0
602,0.0240800000000001,5.000049991798719,-0.11493990537658023,0.1040723013796094,0
603,0.02411999999999992,5.000049991798719,-0.11329595646164246,0.10243320484452755,0
604,0.02415999999999996,5.000049991798719,-0.11230958711109378,0.10145173516493466,0
605,0.0242,5.000049991798719,-0.1100080586218566,0.09915515344611263,0
606,0.02424000000000004,4.99972120164681,-0.10836410969701198,0.09751619819896135,0
607,0.02428000000000008,5.000707572102282,-0.10672016076886852,0.09587728966306981,0
608,0.024319999999999897,5.000378781950543,-0.10573379141039972,0.09489600721815544,0
609,0.024359999999999937,4.99972120164681,-0.10376105268990284,0.09292840173872502,0
610,0.024399999999999977,4.99972120164681,-0.10113073438852911,0.09030326281160693,0
611,0.024440000000000017,5.000049991798719,-0.09948678544589158,0.0886645391815611,0
612,0.024480000000000057,4.99972120164681,-0.09817162628941313,0.08735465108062895,0
613,0.024520000000000097,4.99972120164681,-0.09652767734085597,0.08571601873466514,0
614,0.024559999999999915,5.000049991798719,-0.09389735901632983,0.0830910623633479,0
615,0.024599999999999955,5.000378781950543,-0.09192462026741856,0.08112373072130777,0
616,0.024639999999999995,4.999063621342738,-0.09060946109885244,0.07981402361580194,0
617,0.024680000000000035,4.99972120164681,-0.08995188151378213,0.07916194085199053,0
618,0.024720000000000075,5.000707572102282,-0.08863672234206758,0.077852323061228,0
619,0.024759999999999893,5.000378781950543,-0.08699277337447438,0.07621395983526134,0
620,0.024799999999999933,5.000049991798719,-0.08469124481434036,0.0739180611778992,0
621,0.024839999999999973,5.000378781950543,-0.08304729583888733,0.07227978606632554,0
622,0.024880000000000013,5.000049991798719,-0.0820609264520449,0.07129913430392577,0
623,0.024920000000000053,5.000378781950543,-0.08107455706402487,0.07031852609986328,0
624,0.024960000000000093,5.000049991798719,-0.08008818767482774,0.06933796125258802,0
625,0.02499999999999991,5.000049991798719,-0.07943060808137585,0.0686862293569722,0
626,0.02503999999999995,5.000049991798719,-0.07680028970234042,0.06606180162913931,0
627,0.02507999999999999,5.000707572102282,-0.07712907950017713,0.06639652482850192,0
628,0.02512000000000003,5.000049991798719,-0.07581392030804664,0.06508734158468454,0
629,0.02516000000000007,5.000049991798719,-0.07482755091257769,0.06410699048028906,0
630,0.02520000000000011,5.000378781950543,-0.07384118151593398,0.06312668151296409,0
631,0.02523999999999993,5.000049991798719,-0.07252602231858225,0.06181762467817535,0
632,0.02527999999999997,5.000378781950543,-0.07252602231858225,0.06182376876849782,0
633,0.02532000000000001,5.000378781950543,-0.07088207331895803,0.060186005380989366,0
634,0.02536000000000005,5.000049991798719,-0.06989570391761903,0.05920586290711427,0
635,0.02540000000000009,5.000049991798719,-0.06956691411691203,0.05888334114229765,0
636,0.025439999999999907,5.000049991798719,-0.06759417530993413,0.05691691127224088,0
637,0.025479999999999947,5.000378781950543,-0.06726538550831525,0.05659447110070642,0
638,0.025519999999999987,4.99972120164681,-0.06627901610267752,0.055614491809979405,0
639,0.025560000000000027,5.000049991798719,-0.06562143649826817,0.054963342596502957,0
640,0.025600000000000067,5.000049991798719,-0.06430627728788789,0.053654653843808964,0
641,0.025640000000000107,4.99972120164681,-0.06331990787873677,0.05267479474936626,0
642,0.025679999999999925,4.99972120164681,-0.06167595886088427,0.051037395693053,0
643,0.025719999999999965,4.99972120164681,-0.06167595886088427,0.05104398509077414,0
644,0.025760000000000005,4.99972120164681,-0.06134716905692379,0.050721823909612426,0
645,0.025800000000000045,4.99972120164681,-0.06036079964426265,0.04974212213327055,0
646,0.025840000000000085,5.000049991798719,-0.059703220035172325,0.04909124896201232,0
647,0.025879999999999903,5.000049991798719,-0.059045640425562415,0.04844041437929157,0
648,0.025919999999999943,5.000049991798719,-0.05838806081543309,0.047789618172206935,0
649,0.025959999999999983,4.99972120164681,-0.05608653217589139,0.04549491109852061,0
650,0.026000000000000023,5.000378781950543,-0.05542895256342596,0.04484419100093551,0
651,0.026040000000000063,4.99972120164681,-0.05444258314375501,0.043864718830945726,0
652,0.026080000000000103,5.000049991798719,-0.05312742391571186,0.04255649437272453,0
653,0.02611999999999992,5.000378781950543,-0.052469844300912574,0.04190588683279452,0
654,0.02615999999999996,5.000378781950543,-0.05279863410837703,0.04224168580465111,0
655,0.0262,4.99972120164681,-0.05049710545340523,0.03994720318764165,0
656,0.02624000000000004,5.000049991798719,-0.05082589526164695,0.04028307569103749,0
657,0.02628000000000008,5.000378781950543,-0.050168315645034,0.03963261520996887,0
658,0.0263199999999999,5.000049991798719,-0.0491819462191435,0.03865340114279078,0
659,0.02635999999999994,5.000049991798719,-0.04819557679208804,0.03767422307997563,0
660,0.02639999999999998,5.000049991798719,-0.047537997173404054,0.037023870613003954,0
661,0.02644000000000002,5.000049991798719,-0.046880417554202566,0.036373553714517615,0
662,0.02648000000000006,4.99972120164681,-0.047537997173404054,0.03703843140455705,0
663,0.0265200000000001,5.000378781950543,-0.046551627744407784,0.036059395177233375,0
664,0.026559999999999917,4.99972120164681,-0.04523646850393555,0.034751604049574655,0
665,0.026599999999999957,5.000378781950543,-0.046551627744407784,0.03607416609390475,0
666,0.026639999999999997,5.000049991798719,-0.04425009907222392,0.033780074696125914,0
667,0.026680000000000037,4.999392411494816,-0.04392130926139491,0.03345875640935379,0
668,0.026720000000000077,4.999392411494816,-0.0445788888829237,0.03412384158330063,0
669,0.026759999999999895,5.000378781950543,-0.04326372963934923,0.0328162216988218,0
670,0.026799999999999935,4.99972120164681,-0.04326372963934923,0.032823794642521414,0
671,0.026839999999999975,4.999392411494816,-0.04293493982813261,0.032502611137147475,0
672,0.026880000000000015,5.000707572102282,-0.042277360205311795,0.03185267095946681,0
673,0.026920000000000055,5.000049991798719,-0.042277360205311795,0.031860343320676665,0
674,0.026960000000000095,4.99972120164681,-0.03931825189622702,0.028908940065264246,0
675,0.026999999999999913,5.000378781950543,-0.0383318824575425,0.027930308148730418,0
676,0.027039999999999953,5.000049991798719,-0.03734551301769716,0.026951708475155475,0
677,0.027079999999999993,5.000049991798719,-0.03668793339048888,0.026301930633607,0
678,0.027120000000000033,5.000049991798719,-0.035701563948709644,0.025323394771777766,0
679,0.027160000000000073,5.000378781950543,-0.03340003524671499,0.023029731218558017,0
680,0.027200000000000113,5.000049991798719,-0.03274245561641449,0.02238004808002869,0
681,0.02723999999999993,5.000378781950543,-0.031098506538410467,0.020744026610602845,0
682,0.02727999999999997,4.99972120164681,-0.029454557457189598,0.019108036028219602,0
683,0.02732000000000001,5.000049991798719,-0.028796977823800904,0.018458445557024597,0
684,0.02736000000000005,5.000378781950543,-0.02781060837275358,0.017480095704270546,0
685,0.02740000000000009,4.999392411494816,-0.026166659285104213,0.01584419642340698,0
686,0.02743999999999991,4.99972120164681,-0.026166659285104213,0.015852276210730668,0
687,0.02747999999999995,5.000378781950543,-0.024851500012672237,0.01454522647786062,0
688,0.02751999999999999,4.99972120164681,-0.024193920375685754,0.01389578590403237,0
689,0.02756000000000003,5.000049991798719,-0.023865130556999917,0.013575164443119486,0
690,0.02760000000000007,5.000049991798719,-0.0228787611001723,0.012596992409361282,0
691,0.02764000000000011,4.99972120164681,-0.022221181461645576,0.01194763902954793,0
692,0.027679999999999927,5.000049991798719,-0.021892391642189743,0.011627104074465364,0
693,0.027719999999999967,4.999392411494816,-0.021892391642189743,0.011635387314185883,0
694,0.027760000000000007,5.000049991798719,-0.021892391642189743,0.011643698698614965,0
695,0.027800000000000047,5.000049991798719,-0.021892391642189743,0.01165203799679064,0
696,0.027840000000000087,5.000049991798719,-0.020577232363083744,0.01034524569832447,0
697,0.027879999999999905,5.000049991798719,-0.020577232363083744,0.010353640129828104,0
698,0.027919999999999945,5.000049991798719,-0.020577232363083744,0.010362061780280318,0
699,0.027959999999999985,5.000049991798719,-0.020248442542986647,0.010041720597356502,0
700,0.028000000000000025,5.000378781950543,-0.01926207308192608,0.009063826527653432,0
701,0.028040000000000065,4.99972120164681,-0.01926207308192608,0.009072328440351773,0
702,0.028080000000000105,5.000049991798719,-0.01926207308192608,0.009080856641244153,0
703,0.028119999999999923,5.000378781950543,-0.018275703619711994,0.008103041434668931,0
704,0.028159999999999963,5.000049991798719,-0.017289334156344746,0.007125252047941635,0
705,0.028200000000000003,5.000707572102282,-0.017946913798717698,0.007791437353915118,0
706,0.028240000000000043,4.99972120164681,-0.01696054433496612,0.006813698906391913,0
707,0.028280000000000083,5.000049991798719,-0.0166317545134594,0.006493565219119396,0
708,0.0283199999999999,5.000378781950543,-0.01564538504817102,0.005515876771162678,0
709,0.02835999999999994,5.000049991798719,-0.014987805404005308,0.004867002792234135,0
710,0.02839999999999998,5.000378781950543,-0.01564538504817102,0.0055333125140697575,0
711,0.02844000000000002,5.000378781950543,-0.014659015581730453,0.004555697301981354,0
712,0.02848000000000006,5.000049991798719,-0.014987805404005308,0.004893265319265663,0
713,0.0285200000000001,5.001036362253937,-0.014330225759327644,0.004244487573958039,0
714,0.02855999999999992,5.000378781950543,-0.013672646114138112,0.0035957332959336563,0
715,0.02859999999999996,5.000378781950543,-0.014001435936796827,0.003933371716721368,0
716,0.02864,4.999063621342738,-0.013672646114138112,0.003613453486061499,0
717,0.02868000000000004,5.000378781950543,-0.012686276645394332,0.0026359783658324587,0
718,0.02872000000000008,5.000049991798719,-0.012357486822223915,0.0023161054100818146,0
719,0.028759999999999897,5.000707572102282,-0.012028696998925656,0.001996254735243605,0
720,0.028799999999999937,4.99972120164681,-0.012686276645394332,0.0026627955730969405,0
721,0.028839999999999977,5.000378781950543,-0.0113711173519455,0.001356619275593593,0
722,0.028880000000000017,5.000049991798719,-0.012028696998925656,0.0020232034844712976,0
723,0.028920000000000057,4.99972120164681,-0.0116999071754995,0.001703439550043817,0
724,0.028960000000000097,5.000378781950543,-0.011042327528263687,0.0010549068798177547,0
725,0.028999999999999915,5.000049991798719,-0.010055958056451306,7.760523369997052e-05,0
726,0.029039999999999955,4.99972120164681,-0.008412008934208556,-0.0015572554537224698,0
727,0.029079999999999995,5.000707572102282,-0.00874079875891258,-0.001219356824861545,0
728,0.029120000000000035,5.000049991798719,-0.008412008934208556,-0.0015390177160883312,0
729,0.029160000000000075,5.000378781950543,-0.007425639459330238,-0.002516238368409446,0
730,0.029200000000000115,5.000707572102282,-0.007096849634115457,-0.0028358597224485,0
731,0.029239999999999933,5.000049991798719,-0.006439269983302923,-0.0034842514941461206,0
732,0.029279999999999973,5.000707572102282,-0.007096849634115457,-0.002817464797173541,0
733,0.029320000000000013,5.000049991798719,-0.0047953208540382625,-0.005109767605151361,0
734,0.029360000000000053,4.99972120164681,-0.0047953208540382625,-0.005100522948427083,0
735,0.029400000000000093,4.99972120164681,-0.005124110680146385,-0.004762470022489723,0
736,0.02943999999999991,4.99972120164681,-0.003808951374948702,-0.006068348026475684,0
737,0.02947999999999995,5.000049991798719,-0.0031513717215847087,-0.006716628419167439,0
738,0.02951999999999999,5.000378781950543,-0.005124110680146385,-0.004734572482591348,0
739,0.02956000000000003,5.000049991798719,-0.003808951374948702,-0.0060403973347439854,0
740,0.02960000000000007,5.000707572102282,-0.0028225818947114484,-0.007017415129407206,0
741,0.02964000000000011,5.000049991798719,-0.001178632758433426,-0.008651995590270703,0
742,0.02967999999999993,5.000707572102282,-0.001178632758433426,-0.008642610167888087,0
743,0.02971999999999997,4.99972120164681,-0.0047953208540382625,-0.0050165201459857756,0
744,0.02976000000000001,5.001036362253937,-0.001178632758433426,-0.008623790054609018,0
745,0.02980000000000005,4.99972120164681,-0.003808951374948702,-0.005984037233833242,0
746,0.02984000000000009,4.999392411494816,-0.00348016154833046,-0.006303377082488668,0
747,0.029879999999999907,5.001693942556992,-0.0028225818947114484,-0.006951491228187182,0
748,0.029919999999999947,4.999063621342738,-0.00348016154833046,-0.00628443078059962,0
749,0.029959999999999987,4.99972120164681,-0.004137741201439435,-0.0056173552915456115,0
750,0.030000000000000027,5.000049991798719,-0.0005210531030302584,-0.009224532756263656,0
751,0.030040000000000067,5.000378781950543,-0.003808951374948702,-0.00592710929729405,0
752,0.030080000000000107,5.002680313010939,0.0004653163810297567,-0.010191837557399774,0
753,0.030119999999999925,4.998406041038327,0.0004653163810297567,-0.010182283997393113,0
754,0.030159999999999965,4.999392411494816,0.0027668451816259126,-0.012474245418682223,0
755,0.030200000000000005,4.999392411494816,0.00013652655288240445,-0.0098343458363076,0
756,0.030240000000000045,5.000049991798719,-0.00019226327513760522,-0.009495961725448199,0
757,0.030280000000000085,5.000378781950543,0.0004653163810297567,-0.010143934014819972,0
758,0.030319999999999903,5.000707572102282,0.0007941062093044515,-0.010463103637728274,0
759,0.030359999999999943,5.000378781950543,0.0004653163810297567,-0.010124681011031977,0
760,0.030399999999999983,5.000707572102282,0.001122896037706475,-0.010772615521874515,0
761,0.030440000000000023,4.999392411494816,0.0007941062093044515,-0.01043416844599239,0
762,0.030480000000000063,5.000378781950543,0.0004653163810297567,-0.010095709514479204,0
763,0.030520000000000103,5.000049991798719,0.0007941062093044515,-0.01041481862976229,0
764,0.03055999999999992,5.000049991798719,0.001122896037706475,-0.010733916381539393,0
765,0.03059999999999996,4.99972120164681,0.00013652655288240445,-0.009737843702688195,0
766,0.03064,5.000049991798719,0.0014516858662357995,-0.011043288950951358,0
767,0.03068000000000004,5.000378781950543,0.0014516858662357995,-0.011033564261241885,0
768,0.03072000000000008,5.000378781950543,0.001780475694892425,-0.01135261902211522,0
769,0.0307599999999999,5.000378781950543,0.0014516858662357995,-0.011014083994245194,0
770,0.03079999999999994,5.000378781950543,0.0014516858662357995,-0.011004328910340352,0
771,0.03083999999999998,5.000049991798719,0.0027668451816259126,-0.012309723503964642,0
772,0.03088000000000002,5.000378781950543,0.0024380553525874815,-0.011971159562218558,0
773,0.03092000000000006,5.000378781950543,0.0027668451816259126,-0.012290166134612063,0
774,0.0309600000000001,5.000049991798719,0.00506837398845672,-0.014581902787947507,0
775,0.030999999999999917,5.000049991798719,0.0027668451816259126,-0.0122705731779367,0
776,0.031039999999999957,4.99972120164681,0.003424424840084442,-0.012918343630772156,0
777,0.031079999999999997,5.000049991798719,0.004082004499051814,-0.01356610592898741,0
778,0.031120000000000037,5.000049991798719,0.006712323140007484,-0.016186599301445184,0
779,0.031160000000000077,5.000049991798719,0.006712323140007484,-0.016176766372650725,0
780,0.031199999999999894,5.000378781950543,0.007041112970698912,-0.016495715861762836,0
781,0.031239999999999934,4.999392411494816,0.006383533309443135,-0.01582828869371393,0
782,0.031279999999999974,4.99972120164681,0.008356272294735026,-0.017791173254625856,0
783,0.031320000000000014,5.000049991798719,0.008685062126061585,-0.018110101991665364,0
784,0.031360000000000054,5.000378781950543,0.009342641789095676,-0.01875781413823445,0
785,0.031400000000000095,5.000049991798719,0.01065780111668721,-0.02006309977495821,0
786,0.03143999999999991,5.000378781950543,0.01065780111668721,-0.02005322015750559,0
787,0.03147999999999995,4.99972120164681,0.011644170613713423,-0.021029704358351678,0
788,0.03151999999999999,4.99972120164681,0.011972960446309217,-0.021348603463933344,0
789,0.03156000000000003,5.000049991798719,0.01065780111668721,-0.020023548224389606,0
790,0.03160000000000007,4.99972120164681,0.011315380781244458,-0.020671227044073426,0
791,0.03164000000000011,5.000378781950543,0.01065780111668721,-0.020003741847673187,0
792,0.03167999999999993,4.99972120164681,0.010000221452637598,-0.01933625221281611,0
793,0.03171999999999997,5.000049991798719,0.011315380781244458,-0.020641497379675758,0
794,0.03176000000000001,4.999063621342738,0.011972960446309217,-0.02128915894009463,0
795,0.03180000000000005,5.000049991798719,0.012630540111881347,-0.021936816806176332,0
796,0.03184000000000009,5.000378781950543,0.011972960446309217,-0.02126931189433308,0
797,0.03187999999999991,5.000049991798719,0.011972960446309217,-0.02125938344935166,0
798,0.03191999999999995,5.000049991798719,0.01295932994485767,-0.022235821552281945,0
799,0.03195999999999999,5.000049991798719,0.012630540111881347,-0.02189709762112406,0
800,0.03200000000000003,4.99972120164681,0.012301750279031881,-0.021558371235599547,0
801,0.03204000000000007,5.000707572102282,0.012630540111881347,-0.02187722230934351,0
802,0.03208000000000011,5.000378781950543,0.01295932994485767,-0.022196071424836594,0
803,0.032119999999999926,4.99972120164681,0.011972960446309217,-0.021199759498466086,0
804,0.032159999999999966,5.000049991798719,0.012301750279031881,-0.021518605441049735,0
805,0.032200000000000006,4.999063621342738,0.012301750279031881,-0.02150866033659518,0
806,0.032240000000000046,5.000049991798719,0.012301750279031881,-0.021498714265802923,0
807,0.032280000000000086,5.000707572102282,0.012301750279031881,-0.02148876747662387,0
808,0.032319999999999904,5.000378781950543,0.011315380781244458,-0.02049245071919125,0
809,0.032359999999999944,5.000049991798719,0.011644170613713423,-0.02081129306943589,0
810,0.032399999999999984,5.000378781950543,0.011972960446309217,-0.02113013544507821,0
811,0.032440000000000024,5.000049991798719,0.011315380781244458,-0.02046260859614038,0
812,0.032480000000000064,5.000049991798719,0.011644170613713423,-0.020781451765582354,0
813,0.032520000000000104,5.000049991798719,0.011315380781244458,-0.020442716038650978,0
814,0.03255999999999992,5.000707572102282,0.012301750279031881,-0.021419140658208533,0
815,0.03259999999999996,4.999392411494816,0.01328811977796078,-0.022395566542754222,0
816,0.03264,5.000707572102282,0.011972960446309217,-0.02107046510812302,0
817,0.03268000000000004,5.000378781950543,0.011644170613713423,-0.020731734931447587,0
818,0.03272000000000008,5.000378781950543,0.012630540111881347,-0.02170816609186843,0
819,0.0327599999999999,5.000378781950543,0.012301750279031881,-0.02136944017496989,0
820,0.03279999999999994,5.000049991798719,0.013616909611190692,-0.022674665924072683,0
821,0.03283999999999998,4.99972120164681,0.013616909611190692,-0.022664735089231197,0
822,0.03288000000000002,5.000049991798719,0.014274489278030808,-0.023312386916588775,0
823,0.03292000000000006,5.000049991798719,0.013616909611190692,-0.022644882652688998,0
824,0.0329600000000001,4.99972120164681,0.01328811977796078,-0.022306171711802228,0
825,0.03299999999999992,5.000707572102282,0.014932068945377922,-0.02394020350785793,0
826,0.03303999999999996,5.000378781950543,0.014603279111640999,-0.023601500285856794,0
827,0.03308,4.99972120164681,0.014274489278030808,-0.023262801293787334,0
828,0.03312000000000004,5.000378781950543,0.01328811977796078,-0.022266527111673255,0
829,0.03316000000000008,5.000378781950543,0.01295932994485767,-0.021927837319450694,0
830,0.033199999999999896,5.000378781950543,0.01328811977796078,-0.022246732162764127,0
831,0.033239999999999936,5.000378781950543,0.011972960446309217,-0.0209216830569501,0
832,0.033279999999999976,4.998734831190575,0.01295932994485767,-0.021898168243149642,0
833,0.033320000000000016,5.000049991798719,0.013616909611190692,-0.022545869305019083,0
834,0.033360000000000056,4.99972120164681,0.01328811977796078,-0.022207206821164754,0
835,0.033400000000000096,5.000049991798719,0.012630540111881347,-0.021539760704132577,0
836,0.033439999999999914,5.000378781950543,0.01295932994485767,-0.021858690531535656,0
837,0.033479999999999954,5.000378781950543,0.01295932994485767,-0.021848837216921643,0
838,0.033519999999999994,5.000049991798719,0.01295932994485767,-0.021838990838715003,0
839,0.033560000000000034,5.000049991798719,0.012301750279031881,-0.02117157197640309,0
840,0.033600000000000074,5.001036362253937,0.012630540111881347,-0.021490530039661705,0
841,0.033640000000000114,5.000049991798719,0.012630540111881347,-0.0214807059419991,0
842,0.03367999999999993,5.000049991798719,0.011972960446309217,-0.020813310095580385,0
843,0.03371999999999997,4.99972120164681,0.011315380781244458,-0.020145922411224232,0
844,0.03376000000000001,5.000378781950543,0.012630540111881347,-0.021451282128712,0
845,0.03380000000000005,5.000049991798719,0.011644170613713423,-0.02045512166796879,0
846,0.03384000000000009,5.000049991798719,0.012301750279031881,-0.02110291926555838,0
847,0.03387999999999991,5.000049991798719,0.011315380781244458,-0.020106776838998808,0
848,0.03391999999999995,5.000378781950543,0.012630540111881347,-0.021412172623764908,0
849,0.03395999999999999,5.000378781950543,0.012301750279031881,-0.021073628871721595,0
850,0.03400000000000003,5.000049991798719,0.012301750279031881,-0.021063884822807813,0
851,0.03404000000000007,5.000378781950543,0.010986590948902406,-0.0197389915574719,0
852,0.03408000000000011,4.99972120164681,0.012301750279031881,-0.021044427309350272,0
853,0.03411999999999993,4.99972120164681,0.011972960446309217,-0.020705924498397213,0
854,0.03415999999999997,4.999063621342738,0.012630540111881347,-0.021353802028639,0
855,0.03420000000000001,5.000049991798719,0.012301750279031881,-0.02101532114604924,0
856,0.03424000000000005,5.000049991798719,0.012630540111881347,-0.021334431257245677,0
857,0.03428000000000009,5.000378781950543,0.012630540111881347,-0.021324763105981005,0
858,0.034319999999999906,4.99972120164681,0.011644170613713423,-0.020328737269038367,0
859,0.034359999999999946,4.999392411494816,0.011972960446309217,-0.020647882817248144,0
860,0.034399999999999986,5.000378781950543,0.011315380781244458,-0.019980671163878506,0
861,0.034440000000000026,5.000378781950543,0.011315380781244458,-0.01997105171313755,0
862,0.034480000000000066,5.000378781950543,0.01032901128459894,-0.0189750755445847,0
863,0.034520000000000106,5.000707572102282,0.010986590948902406,-0.019623061556867598,0
864,0.034559999999999924,5.000378781950543,0.011972960446309217,-0.02059985066297379,0
865,0.034599999999999964,5.000049991798719,0.011972960446309217,-0.02059028377300297,0
866,0.034640000000000004,5.000707572102282,0.011644170613713423,-0.020251940792149245,0
867,0.034680000000000044,5.000707572102282,0.011644170613713423,-0.020242401625757165,0
868,0.034720000000000084,5.000378781950543,0.011644170613713423,-0.020232876681150293,0
869,0.0347599999999999,5.000378781950543,0.013945699444547363,-0.022524895028844926,0
870,0.03479999999999994,5.000378781950543,0.014603279111640999,-0.023172978913708803,0
871,0.03483999999999998,5.000049991798719,0.017233597785083862,-0.025793816745029688,0
872,0.03488000000000002,5.000378781950543,0.01756238761983417,-0.02611314091671687,0
873,0.03492000000000006,5.000049991798719,0.02019270630239349,-0.028734009353972356,0
874,0.0349600000000001,5.000049991798719,0.022494235156274286,-0.031026103618755095,0
875,0.03499999999999992,5.000378781950543,0.023809394504130166,-0.03233184427190777,0
876,0.03503999999999996,5.000049991798719,0.024795764016348754,-0.03330881122174632,0
877,0.03508,5.000049991798719,0.025124553854007567,-0.03362821486701236,0
878,0.03512000000000004,4.99972120164681,0.022494235156274286,-0.030988526584270037,0
879,0.03516000000000008,5.000049991798719,0.02085028597429857,-0.029335224661794505,0
880,0.0351999999999999,5.000378781950543,0.018877546960101396,-0.027353149988457868,0
881,0.03523999999999994,5.000049991798719,0.014603279111640999,-0.023069563798791718,0
882,0.03527999999999998,5.000378781950543,0.01065780111668721,-0.019114785016858152,0
883,0.03532000000000002,4.99972120164681,0.006712323140007484,-0.015160024043432448,0
884,0.03536000000000006,5.000049991798719,0.0024380553525874815,-0.01087649128522031,0
885,0.0354000000000001,5.000049991798719,-0.001178632758433426,-0.0072505564647899765,0
886,0.035439999999999916,4.99972120164681,-0.005781690331979852,-0.0026382706783511295,0
887,0.035479999999999956,5.000707572102282,-0.0090695885834889,0.0006588370546970019,0
888,0.035519999999999996,5.000049991798719,-0.010384747880516562,0.0019831868673753994,0
889,0.035560000000000036,5.000049991798719,-0.012686276645394332,0.004293886947785237,0
890,0.035600000000000076,5.000049991798719,-0.015316595226152155,0.0069333574100341935,0
891,0.035639999999999894,5.000378781950543,-0.017289334156344746,0.008915228554066132,0
892,0.035679999999999934,5.000378781950543,-0.01860449344057817,0.01023950015119106,0
893,0.035719999999999974,5.000378781950543,-0.02090602218305261,0.012550121072631253,0
894,0.035760000000000014,5.000378781950543,-0.02320755091924319,0.014860721621205449,0
895,0.035800000000000054,5.000049991798719,-0.023865130556999917,0.015527352472432136,0
896,0.035840000000000094,5.000378781950543,-0.025509079649145103,0.017180331947130353,0
897,0.03587999999999991,5.000378781950543,-0.02781060837275358,0.019490869990703222,0
898,0.03591999999999995,5.000049991798719,-0.029783347273691016,0.02147259691767962,0
899,0.03595999999999999,5.001036362253937,-0.03142729635426868,0.023125512499372346,0
900,0.03600000000000003,5.000707572102282,-0.035043984320212454,0.026751145210850428,0
901,0.03604000000000007,5.000049991798719,-0.0383318824575425,0.030047966107822136,0
902,0.03608000000000011,5.000378781950543,-0.04161978058197445,0.03334476477603953,0
903,0.03611999999999993,4.99972120164681,-0.046880417554202566,0.038614279846585005,0
904,0.03615999999999997,5.000049991798719,-0.05115468506975916,0.042897402785733986,0
905,0.03620000000000001,5.000049991798719,-0.05707290159361651,0.04882445182956026,0
906,0.03624000000000005,5.001036362253937,-0.06233353846841526,0.05409389809216772,0
907,0.03628000000000009,5.000049991798719,-0.06858054471400928,0.06034969036523847,0
908,0.03631999999999991,5.000378781950543,-0.07449876111382696,0.06627666920439752,0
909,0.03635999999999995,4.99972120164681,-0.08107455706402487,0.07286120377836978,0
910,0.03639999999999999,5.000707572102282,-0.08699277337447438,0.07878813466997003,0
911,0.03644000000000003,5.000378781950543,-0.09093825089119083,0.08274230249853541,0
912,0.03648000000000007,5.000049991798719,-0.09356856922517286,0.08538128664876779,0
913,0.03652000000000011,4.99972120164681,-0.09488372838901253,0.08670508690734743,0
914,0.036559999999999926,5.000049991798719,-0.09159583047547391,0.0834258051415146,0
915,0.036599999999999966,4.99972120164681,-0.08765035296190492,0.07948891860348474,0
916,0.036640000000000006,5.000378781950543,-0.08140334686016236,0.07325047808037669,0
917,0.036680000000000046,5.000049991798719,-0.0715396529191989,0.06339532409680289,0
918,0.036720000000000086,5.000049991798719,-0.06036079964426265,0.05222498493407238,0
919,0.036759999999999904,5.000049991798719,-0.04852436660123595,0.04039703993453298,0
920,0.036799999999999944,5.000049991798719,-0.035372774134525484,0.027253909219464714,0
921,0.036839999999999984,5.000049991798719,-0.0228787611001723,0.014768331422192995,0
922,0.036880000000000024,5.000378781950543,-0.010055958056451306,0.0019539368786913366,0
923,0.036920000000000064,5.000049991798719,-0.00019226327513760522,-0.007901376361149045,0
924,0.036960000000000104,4.99972120164681,0.008027482463535476,-0.016112767738557986,0
925,0.03699999999999992,4.99972120164681,0.016904807950460177,-0.02498176626546694,0
926,0.03703999999999996,5.000049991798719,0.022823024993048696,-0.03089168396990017,0
927,0.03708,5.000707572102282,0.028412452237539368,-0.0364728397182776,0
928,0.03712000000000004,5.000049991798719,0.0323579303144281,-0.04041007436084308,0
929,0.03716000000000008,5.000378781950543,0.034988249042434,-0.04303217793562672,0
930,0.0371999999999999,5.000378781950543,0.037947357621069405,-0.045983099861011754,0
931,0.03723999999999994,5.000049991798719,0.0392625169926218,-0.0472901012977132,0
932,0.03727999999999998,5.000049991798719,0.04024888652260587,-0.04826834182922673,0
933,0.03732000000000002,4.99972120164681,0.039920096679152195,-0.047931452141214255,0
934,0.03736000000000006,5.000049991798719,0.04024888652260587,-0.04825217151109927,0
935,0.0374000000000001,5.000378781950543,0.03893372714954513,-0.04692897125208227,0
936,0.03743999999999992,4.99972120164681,0.0392625169926218,-0.04724975001297817,0
937,0.03747999999999996,5.000049991798719,0.037947357621069405,-0.04592660957872116,0
938,0.03752,4.999392411494816,0.037618567778495635,-0.04558986890815417,0
939,0.03756000000000004,5.000378781950543,0.037947357621069405,-0.045910738372212635,0
940,0.03760000000000008,4.99972120164681,0.037618567778495635,-0.0455740588148961,0
941,0.037639999999999896,5.000707572102282,0.03827614746376892,-0.046223779663018834,0
942,0.037679999999999936,5.000049991798719,0.037618567778495635,-0.045558372231528636,0
943,0.037719999999999976,4.99972120164681,0.034988249042434,-0.04292025705304392,0
944,0.037760000000000016,4.99972120164681,0.03433066935967702,-0.04225491244403333,0
945,0.037800000000000056,5.000378781950543,0.03465945920099257,-0.042575969087152776,0
946,0.037840000000000096,5.000707572102282,0.033015509995673945,-0.04092431862309273,0
947,0.037879999999999914,4.999063621342738,0.030385191273714543,-0.038286330792749804,0
948,0.037919999999999954,5.001365152405508,0.029070031915759978,-0.03696353468717571,0
949,0.037959999999999994,4.99972120164681,0.025453343691792682,-0.03333924228625871,0
950,0.038000000000000034,4.999392411494816,0.021836655483104705,-0.029714982680693305,0
951,0.038040000000000074,5.000707572102282,0.02216544531962629,-0.03003623410930573,0
952,0.038080000000000114,4.998406041038327,0.018548757124844717,-0.02641204070396976,0
953,0.03811999999999993,4.997419670581074,0.01953512663099438,-0.027390938404793622,0
954,0.03815999999999997,5.000049991798719,0.015918438447348998,-0.023766812028409183,0
955,0.03820000000000001,5.001036362253937,0.014274489278030808,-0.02211545848577803,0
956,0.03824000000000005,5.000707572102282,0.011972960446309217,-0.019806559306487025,0
957,0.03828000000000009,4.999392411494816,0.01328811977796078,-0.02111438252210518,0
958,0.03831999999999991,5.001036362253937,0.01032901128459894,-0.0181479723495103,0
959,0.03835999999999995,4.99972120164681,0.007369902801517392,-0.01518159682872921,0
960,0.03839999999999999,5.000707572102282,0.006054743479005864,-0.013859205314250476,0
961,0.03844000000000003,4.99972120164681,0.0027668451816259126,-0.010564109874297088,0
962,0.03848000000000007,4.99972120164681,0.003753214669504526,-0.011543317472116999,0
963,0.03852000000000011,5.000707572102282,0.004410794328726292,-0.01219377069637223,0
964,0.03855999999999993,5.000049991798719,0.005397163818512657,-0.01317304940831505,0
965,0.03859999999999997,5.000707572102282,0.0076986926324629085,-0.015467523303025893,0
966,0.03864000000000001,5.000378781950543,0.008027482463535476,-0.01578929427439163,0
967,0.03868000000000005,4.999063621342738,0.008027482463535476,-0.015782311674590044,0
968,0.03872000000000009,5.000049991798719,0.009342641789095676,-0.01709052486006776,0
969,0.038759999999999906,4.99972120164681,0.008356272294735026,-0.01609724588459574,0
970,0.038799999999999946,5.000378781950543,0.007369902801517392,-0.015104003767924963,0
971,0.038839999999999986,4.99972120164681,0.004739584158527918,-0.012466849557259766,0
972,0.038880000000000026,5.000049991798719,-0.00019226327513760522,-0.00752820380924419,0
973,0.038920000000000066,4.99972120164681,-0.0047953208540382625,-0.0029183853662934564,0
974,0.038960000000000106,5.000049991798719,-0.012686276645394332,0.004979293642415311,0
975,0.038999999999999924,5.000049991798719,-0.022221181461645576,0.014520883833504417,0
976,0.039039999999999964,5.000707572102282,-0.03274245561641449,0.02504880532536185,0
977,0.039080000000000004,5.000049991798719,-0.0445788888829237,0.03689184769656156,0
978,0.039120000000000044,5.000049991798719,-0.057730481204784426,0.05005001069665484,0
979,0.039160000000000084,5.000378781950543,-0.07121086311914367,0.06353692466932054,0
980,0.0391999999999999,5.000378781950543,-0.0840336652245519,0.07636622002023555,0
981,0.03923999999999994,5.000049991798719,-0.09356856922517286,0.08590757826128752,0
982,0.03927999999999998,5.000049991798719,-0.1027746833278755,0.09512010740766982,0
983,0.03932000000000002,5.000049991798719,-0.11099442797517921,0.10334622771082953,0
984,0.03936000000000006,5.000049991798719,-0.11526869515917111,0.10762683097238764,0
985,0.0394000000000001,5.000049991798719,-0.11954296232081356,0.11190739444344958,0
986,0.03943999999999992,5.000707572102282,-0.12085812144297166,0.11322880991763562,0
987,0.03947999999999996,5.000378781950543,-0.11954296232081356,0.11191986700148415,0
988,0.03952,5.000049991798719,-0.11559748494162976,0.10798056549427384,0
989,0.03956000000000004,5.000378781950543,-0.10869289948224485,0.10108211538543825,0
990,0.03960000000000008,5.000049991798719,-0.10113073438852911,0.09352604493408032,0
991,0.0396399999999999,4.99972120164681,-0.09291098964246501,0.08531235393604214,0
992,0.03967999999999994,5.000049991798719,-0.0840336652245519,0.07644104218631251,0
993,0.03971999999999998,4.999392411494816,-0.07515634071119788,0.06756968907642188,0
994,0.03976000000000002,5.000049991798719,-0.06890933451510713,0.06132861283483265,0
995,0.03980000000000006,5.000049991798719,-0.06101837925283336,0.05344354589449555,0
996,0.0398400000000001,4.99972120164681,-0.05444258314375501,0.04687359629182762,0
997,0.039879999999999916,5.000049991798719,-0.05049710545340523,0.04293392311004523,0
998,0.039919999999999956,5.000378781950543,-0.045565258314247556,0.03800783829994277,0
999,0.039959999999999996,4.99972120164681,-0.04326372963934923,0.035712029593568645,0
1000,0.040000000000000036,5.000378781950543,-0.03964704170886384,0.03210101909071079,0
1001,0.040040000000000076,5.000707572102282,-0.04063341114600001,0.03309302323486806,0
1002,0.040080000000000116,5.000378781950543,-0.04194857039370768,0.0344137742899393,0
1003,0.040119999999999933,5.000049991798719,-0.042277360205311795,0.03474811283085979,0
1004,0.040159999999999973,4.99972120164681,-0.04425009907222392,0.03672635717131562,0
1005,0.040200000000000014,4.999063621342738,-0.044907678693494255,0.03738939883329855,0
1006,0.040240000000000054,5.000049991798719,-0.0445788888829237,0.03706602745422083,0
1007,0.040280000000000094,5.000049991798719,-0.04392130926139491,0.03641382247924894,0
1008,0.04031999999999991,5.000378781950543,-0.04161978058197445,0.03411762448640849,0
1009,0.04035999999999995,5.000378781950543,-0.039975831521371616,0.03247896197804573,0
1010,0.04039999999999999,5.000049991798719,-0.03471519450577058,0.027223567206662483,0
1011,0.04044000000000003,4.99972120164681,-0.028796977823800904,0.021310548287889274,0
1012,0.04048000000000007,5.000378781950543,-0.022549971280973066,0.01506869485492358,0
1013,0.04052000000000011,5.000378781950543,-0.014001435936796827,0.0065252677956509075,0
1014,0.04055999999999993,5.000378781950543,-0.004137741201439435,-0.003333363650694319,0
1015,0.04059999999999997,5.000049991798719,0.00506837398845672,-0.012534460717708449,0
1016,0.04064000000000001,5.000378781950543,0.014603279111640999,-0.022064393053682817,0
1017,0.04068000000000005,4.99972120164681,0.024466974178816228,-0.03192316083816283,0
1018,0.04072000000000009,5.000707572102282,0.030056401434036775,-0.037507706483343395,0
1019,0.04075999999999991,5.000378781950543,0.03860493730659416,-0.04605140658595196,0
1020,0.04079999999999995,4.99972120164681,0.043865574808886185,-0.05130725432511495,0
1021,0.04083999999999999,4.99972120164681,0.050770161579389975,-0.058207097505328244,0
1022,0.04088000000000003,5.000049991798719,0.05701716870504489,-0.06444940737883745,0
1023,0.04092000000000007,5.000378781950543,0.06490812513874837,-0.07233571306313111,0
1024,0.04096000000000011,4.99972120164681,0.0757581903522391,-0.0831811741938211,0
1025,0.040999999999999925,5.000049991798719,0.08825220500793643,-0.09567063159647919,0
1026,0.041039999999999965,5.000707572102282,0.10239016917566456,-0.10980408550335877,0
1027,0.041080000000000005,4.99972120164681,0.11882966267987906,-0.1262391159006186,0
1028,0.041120000000000045,4.99972120164681,0.13494036661069325,-0.14234540403934698,0
1029,0.041160000000000085,5.000707572102282,0.15137986071867066,-0.15878052983035146,0
1030,0.0411999999999999,5.000049991798719,0.16979209447845212,-0.1771884429077833,0
1031,0.04123999999999994,5.000049991798719,0.18590279932743567,-0.1932948748678147,0
1032,0.04127999999999998,4.999063621342738,0.19905439533525277,-0.20644224593811236,0
1033,0.04132000000000002,5.000378781950543,0.2105620419981934,-0.21794571577225985,0
1034,0.04136000000000006,5.000378781950543,0.21812420988429362,-0.22550375509484255,0
1035,0.0414000000000001,4.99972120164681,0.22009694934312324,-0.2274724144112329,0
1036,0.04143999999999992,5.000049991798719,0.21746663006562844,-0.2248380635674309,0
1037,0.04147999999999996,5.000049991798719,0.21121962181189158,-0.2185870724778212,0
1038,0.04152,5.000378781950543,0.20168471455967557,-0.2090482312737148,0
1039,0.04156000000000004,4.99972120164681,0.18853311851373566,-0.1958927503126588,0
1040,0.04160000000000008,4.99972120164681,0.17242241361780836,-0.17977820969042196,0
1041,0.0416399999999999,5.000378781950543,0.15401017980404885,-0.16136218949043052,0
1042,0.04167999999999994,5.000049991798719,0.13198125770349964,-0.1393295304942339,0
1043,0.04171999999999998,5.000378781950543,0.11093870575958677,-0.11828329129499847,0
1044,0.04176000000000002,4.99972120164681,0.08890978473160849,-0.0962507328009938,0
1045,0.04180000000000006,5.000707572102282,0.06622328455134852,-0.07356064509220378,0
1046,0.0418400000000001,5.000378781950543,0.046495893572083224,-0.05382971666933123,0
1047,0.04187999999999992,5.000378781950543,0.028741242076586612,-0.036071577961800515,0
1048,0.04191999999999996,5.000378781950543,0.012630540111881347,-0.019957439162506165,0
1049,0.04196,5.000049991798719,0.0007941062093044515,-0.008117618947876173,0
1050,0.04200000000000004,5.000049991798719,-0.007425639459330238,0.00010546236596797182,0
1051,0.04204000000000008,4.99972120164681,-0.014001435936796827,0.0066845436782784415,0
1052,0.042079999999999895,5.000378781950543,-0.01696054433496612,0.009646885958192221,0
1053,0.042119999999999935,5.000049991798719,-0.017618123977595282,0.010307648387523183,0
1054,0.042159999999999975,5.000049991798719,-0.014987805404005308,0.007680461364441976,0
1055,0.042200000000000015,5.000049991798719,-0.014659015581730453,0.007354751716127851,0
1056,0.042240000000000055,5.000378781950543,-0.012028696998925656,0.004727461791178576,0
1057,0.042280000000000095,4.999392411494816,-0.00808321910937683,0.000784960904622975,0
1058,0.04231999999999991,5.000378781950543,-0.005124110680146385,-0.002171222314431044,0
1059,0.04235999999999995,5.000707572102282,-0.0024937920677107622,-0.004798667646656714,0
1060,0.04239999999999999,4.99972120164681,-0.00019226327513760522,-0.007097375225329022,0
1061,0.04244000000000003,5.000378781950543,0.0021092655236763236,-0.009396135012084382,0
1062,0.04248000000000007,5.000378781950543,0.005397163818512657,-0.01268131663142593,0
1063,0.04252000000000011,5.000707572102282,0.0076986926324629085,-0.014980181240352733,0
1064,0.04255999999999993,4.99972120164681,0.009342641789095676,-0.016621518795524787,0
1065,0.04259999999999997,5.000049991798719,0.011972960446309217,-0.01924927858711328,0
1066,0.04264000000000001,5.000049991798719,0.016576018115963126,-0.02384983025843,0
1067,0.04268000000000005,4.99972120164681,0.018548757124844717,-0.02582011626689149,0
1068,0.04272000000000009,5.000378781950543,0.02216544531962629,-0.029434404588973968,0
1069,0.04275999999999991,5.000049991798719,0.022494235156274286,-0.029760847809620267,0
1070,0.04279999999999995,5.000049991798719,0.02216544531962629,-0.02942976474181458,0
1071,0.04283999999999999,5.000049991798719,0.022494235156274286,-0.029756314859463496,0
1072,0.04288000000000003,5.000049991798719,0.020521496138282788,-0.0277813897611119,0
1073,0.04292000000000007,5.000049991798719,0.01953512663099438,-0.026792887937746264,0
1074,0.04296000000000011,5.000049991798719,0.017233597785083862,-0.024489280664846673,0
1075,0.04299999999999993,5.000049991798719,0.013945699444547363,-0.021199357910373768,0
1076,0.04303999999999997,5.000378781950543,0.011644170613713423,-0.018895858801777597,0
1077,0.04308000000000001,5.000049991798719,0.008027482463535476,-0.015277254632287997,0
1078,0.04312000000000005,5.000378781950543,0.004410794328726292,-0.011658704858046945,0
1079,0.04316000000000009,5.000707572102282,0.0021092655236763236,-0.0093553689140249,0
1080,0.043199999999999905,5.000049991798719,-0.0015074225859438989,-0.0057369282856209805,0
1081,0.043239999999999945,5.000378781950543,-0.003808951374948702,-0.003433701716895936,0
1082,0.043279999999999985,4.999392411494816,-0.007096849634115457,-0.00014416053509187787,0
1083,0.043320000000000025,5.000049991798719,-0.010713537704454032,0.0034741154836392674,0
1084,0.043360000000000065,5.000378781950543,-0.01301506646843685,0.005777177105467893,0
1085,0.043400000000000105,4.99972120164681,-0.01630296469182467,0.009066552980714467,0
1086,0.04343999999999992,5.000049991798719,-0.017618123977595282,0.010383134597780432,0
1087,0.04347999999999996,5.000707572102282,-0.01926207308192608,0.012028450599132878,0
1088,0.04352,5.000707572102282,-0.021563601822605624,0.014331290689718015,0
1089,0.04356000000000004,5.000049991798719,-0.024522710194243194,0.017291654752172606,0
1090,0.04360000000000008,5.000707572102282,-0.025837869467188898,0.018608013945746002,0
1091,0.0436399999999999,4.999392411494816,-0.027481818555480722,0.020253107074249224,0
1092,0.04367999999999994,5.000378781950543,-0.027481818555480722,0.02025419512469344,0
1093,0.04371999999999998,4.999392411494816,-0.029125767640559533,0.021899176161976328,0
1094,0.04376000000000002,5.000378781950543,-0.029125767640559533,0.021900151908347404,0
1095,0.04380000000000006,5.000049991798719,-0.030112137090063842,0.02288744079167883,0
1096,0.0438400000000001,5.000378781950543,-0.03142729635426868,0.024203463071339623,0
1097,0.04387999999999992,5.000707572102282,-0.03208487598559902,0.02486184919481324,0
1098,0.04391999999999996,5.000378781950543,-0.03142729635426868,0.024205019428259533,0
1099,0.04396,5.000378781950543,-0.03274245561641449,0.02552087182465075,0
1100,0.04400000000000004,5.000707572102282,-0.033071245431629134,0.02585029794130622,0
1101,0.04404000000000008,4.99972120164681,-0.03438640469119987,0.027166036568133017,0
1102,0.0440799999999999,5.000378781950543,-0.03471519450577058,0.02749534871528997,0
1103,0.04411999999999994,5.000378781950543,-0.03340003524671499,0.02618065465456261,0
1104,0.04415999999999998,5.000378781950543,-0.03438640469119987,0.027167432064428274,0
1105,0.04420000000000002,5.000707572102282,-0.03372882506167206,0.026510203069545046,0
1106,0.04424000000000006,5.000049991798719,-0.03340003524671499,0.02618170646160997,0
1107,0.0442800000000001,5.000707572102282,-0.03274245561641449,0.025524362514726867,0
1108,0.044319999999999915,5.000378781950543,-0.03208487598559902,0.024866960948648348,0
1109,0.044359999999999955,5.000707572102282,-0.03208487598559902,0.02486708130053679,0
1110,0.044399999999999995,5.001036362253937,-0.031098506538410467,0.023880774399129515,0
1111,0.044440000000000035,5.000049991798719,-0.029125767640559533,0.021908040148605215,0
1112,0.044480000000000075,5.000378781950543,-0.028796977823800904,0.021579196989283955,0
1113,0.044520000000000115,5.000049991798719,-0.026495449102891075,0.01927755684540218,0
1114,0.04455999999999993,5.000378781950543,-0.024851500012672237,0.017633438162198256,0
1115,0.04459999999999997,5.000707572102282,-0.02320755091924319,0.01598926121708505,0
1116,0.04464000000000001,5.000049991798719,-0.01991965272276132,0.012701076822453576,0
1117,0.04468000000000005,4.99972120164681,-0.018275703619711994,0.011056783087944083,0
1118,0.04472000000000009,5.000378781950543,-0.01564538504817102,0.008426061365710141,0
1119,0.04475999999999991,5.000049991798719,-0.012028696998925656,0.004808911561541354,0
1120,0.04479999999999995,5.000049991798719,-0.008412008934208556,0.0011917030535990927,0
1121,0.04483999999999999,4.99972120164681,-0.004466531027802631,-0.002754354067477094,0
1122,0.04488000000000003,5.000049991798719,-0.0005210531030302584,-0.006700470060578653,0
1123,0.04492000000000007,5.000707572102282,0.0027668451816259126,-0.009989065348505584,0
1124,0.04496000000000011,4.999392411494816,0.006712323140007484,-0.013935299325449364,0
1125,0.04499999999999993,5.000378781950543,0.009671431620803153,-0.01689522291951415,0
1126,0.04503999999999997,5.000707572102282,0.015589648613231935,-0.022814314198398442,0
1127,0.04508000000000001,4.999392411494816,0.02019270630239349,-0.02741830542474389,0
1128,0.04512000000000005,5.001036362253937,0.024795764016348754,-0.032022356003214375,0
1129,0.04516000000000009,5.000049991798719,0.028741242076586612,-0.03596888633096111,0
1130,0.04519999999999991,5.000707572102282,0.033015509995673945,-0.04024426599527113,0
1131,0.04523999999999995,5.000378781950543,0.03696098809372539,-0.04419091539003553,0
1132,0.04527999999999999,5.000378781950543,0.03959130683582415,-0.046822465053168776,0
1133,0.04532000000000003,5.000378781950543,0.04320799511934159,-0.05044044395392679,0
1134,0.04536000000000007,4.99972120164681,0.045509524034943585,-0.05274332325391181,0
1135,0.04540000000000011,4.99972120164681,0.04912621234330475,-0.05636142178378518,0
1136,0.045439999999999925,5.000049991798719,0.051098951426982675,-0.05833563099514014,0
1137,0.045479999999999965,5.000049991798719,0.050770161579389975,-0.058008371249472473,0
1138,0.045520000000000005,5.000378781950543,0.05372927021222988,-0.06096907002561467,0
1139,0.045560000000000045,5.000378781950543,0.05471563975876172,-0.06195708982300016,0
1140,0.045600000000000085,5.000378781950543,0.05471563975876172,-0.061958800246622696,0
1141,0.0456399999999999,4.99972120164681,0.05570200930641887,-0.06294694045493081,0
1142,0.04567999999999994,5.000378781950543,0.05603079915588792,-0.0632775612653794,0
1143,0.04571999999999998,5.000049991798719,0.05635958900548195,-0.06360824243862086,0
1144,0.04576000000000002,4.99972120164681,0.05635958900548195,-0.0636101941863133,0
1145,0.04580000000000006,4.99972120164681,0.05537321945707481,-0.06262583687005721,0
1146,0.0458400000000001,5.000049991798719,0.05537321945707481,-0.06262790964611552,0
1147,0.04587999999999992,5.000049991798719,0.05471563975876172,-0.061972463326250525,0
1148,0.04591999999999996,5.000378781950543,0.054058060060948765,-0.06131707766679054,0
1149,0.04596,5.000049991798719,0.05340048036363608,-0.06066175272428203,0
1150,0.04600000000000004,5.000049991798719,0.05274290066682373,-0.060006488554301435,0
1151,0.04604000000000008,4.99972120164681,0.05175653112254362,-0.05902249536348571,0
1152,0.0460799999999999,5.001036362253937,0.050770161579389975,-0.058038563054061514,0
1153,0.04611999999999994,5.000707572102282,0.04846863264974746,-0.05573953229107219,0
1154,0.04615999999999998,5.001036362253937,0.04945500219027131,-0.05672846098285661,0
1155,0.04620000000000002,5.000049991798719,0.050770161579389975,-0.058046240558550614,0
1156,0.04624000000000006,4.99972120164681,0.04879742249646346,-0.05607618274724421,0
1157,0.0462800000000001,4.998734831190575,0.05044137173192248,-0.057722874388119384,0
1158,0.04631999999999992,4.999063621342738,0.04748226311035131,-0.054766569353531754,0
1159,0.04635999999999996,5.001036362253937,0.04912621234330475,-0.056413383401826264,0
1160,0.0464,5.000049991798719,0.044851944344144246,-0.05214204149217198,0
1161,0.04644000000000004,4.998077250885994,0.04419436465384674,-0.05148744921036971,0
1162,0.04648000000000008,5.001693942556992,0.045509524034943585,-0.052805657362789915,0
1163,0.046519999999999895,5.000049991798719,0.04320799511934159,-0.05050723862419246,0
1164,0.046559999999999935,4.9967620902758165,0.03893372714954513,-0.04623614227894761,0
1165,0.046599999999999975,5.000707572102282,0.04090646620989019,-0.048212114452269084,0
1166,0.046640000000000015,5.000049991798719,0.037947357621069405,-0.04525630050473789,0
1167,0.046680000000000055,4.998406041038327,0.037618567778495635,-0.04493086687066489,0
1168,0.046720000000000095,5.000378781950543,0.037618567778495635,-0.0449342846842834,0
1169,0.04675999999999991,5.001036362253937,0.033673089677423634,-0.04099228603886172,0
1170,0.04679999999999995,5.000049991798719,0.03202914047399413,-0.03935187796903483,0
1171,0.04683999999999999,5.000049991798719,0.029398821755059465,-0.0367251620965809,0
1172,0.04688000000000003,4.99972120164681,0.024795764016348754,-0.03212576895115918,0
1173,0.04692000000000007,5.000049991798719,0.021836655483104705,-0.029170386790945753,0
1174,0.04696000000000011,4.99972120164681,0.016576018115963126,-0.02391353760851215,0
1175,0.04699999999999993,5.000378781950543,0.013945699444547363,-0.021287068964418843,0
1176,0.04703999999999997,5.000049991798719,0.009671431620803153,-0.017016713040549178,0
1177,0.04708000000000001,4.99972120164681,0.005397163818512657,-0.012746419039622474,0
1178,0.04712000000000005,5.000707572102282,0.00013652655288240445,-0.007489817504781109,0
1179,0.04716000000000009,5.000378781950543,-0.005124110680146385,-0.0022332779589000415,0
1180,0.04719999999999991,4.99972120164681,-0.010384747880516562,0.003023199572032953,0
1181,0.04723999999999995,4.99972120164681,-0.01597417487006185,0.008608404884924994,0
1182,0.04727999999999999,4.99972120164681,-0.022221181461645576,0.014851127768717706,0
1183,0.04732000000000003,5.000378781950543,-0.025837869467188898,0.018463470012416328,0
1184,0.04736000000000007,5.000378781950543,-0.03044092690630805,0.023062119613727977,0
1185,0.04740000000000011,5.000049991798719,-0.03603035376276496,0.02864707653551317,0
1186,0.04743999999999993,5.000049991798719,-0.04096220095812057,0.03357439167944003,0
1187,0.04747999999999997,5.000049991798719,-0.045565258314247556,0.03817285484849789,0
1188,0.04752000000000001,5.000707572102282,-0.05049710545340523,0.043100045647073176,0
1189,0.04756000000000005,5.000378781950543,-0.05510016275699865,0.047698384439709265,0
1190,0.04760000000000009,5.000049991798719,-0.06167595886088427,0.05426939984641309,0
1191,0.047639999999999905,5.000707572102282,-0.06627901610267752,0.058867614189963405,0
1192,0.047679999999999945,5.000049991798719,-0.07121086311914367,0.06379455609330256,0
1193,0.047719999999999985,5.000378781950543,-0.07745786929788322,0.07003659493122275,0
1194,0.047760000000000025,4.99972120164681,-0.0840336652245519,0.0766073612775865,0
1195,0.047800000000000065,5.000049991798719,-0.09126704068339796,0.08383564490586476,0
1196,0.047840000000000105,5.000378781950543,-0.09882920586791545,0.09139265599979055,0
1197,0.04787999999999992,5.000378781950543,-0.10376105268990284,0.09631928646241841,0
1198,0.04791999999999996,5.000378781950543,-0.10803531991164712,0.100588275048309,0
1199,0.04796,5.000707572102282,-0.11230958711109378,0.10485720132869988,0
1200,0.04800000000000004,5.000049991798719,-0.11625506450615032,0.10879727551580926,0
1201,0.04804000000000008,5.000049991798719,-0.11987175210155175,0.1124084976097022,0
1202,0.0480799999999999,5.000049991798719,-0.12381722946007585,0.11634844716950643,0
1203,0.04811999999999994,4.99972120164681,-0.12578996813217858,0.11831559574304812,0
1204,0.04815999999999998,5.000378781950543,-0.1290778659083996,0.121597841119258,0
1205,0.04820000000000002,4.99972120164681,-0.13203697389564184,0.12455123440445157,0
1206,0.04824000000000006,4.999392411494816,-0.13598245119521052,0.1284909347003688,0
1207,0.0482800000000001,5.000378781950543,-0.1392703489302085,0.13177299313157007,0
1208,0.04831999999999992,4.99972120164681,-0.14157187733677873,0.13406861993667907,0
1209,0.04835999999999996,5.000378781950543,-0.14157187733677873,0.13406265604105816,0
1210,0.0484,5.000049991798719,-0.1379551898378077,0.1304399423568357,0
1211,0.04844000000000004,5.000049991798719,-0.1336809227727903,0.12615958682249065,0
1212,0.04848000000000008,5.000378781950543,-0.12874907613137498,0.12122158943425063,0
1213,0.0485199999999999,5.000378781950543,-0.12020054188215752,0.11266684216831624,0
1214,0.04855999999999994,5.000049991798719,-0.10902168926734575,0.10148171427552583,0
1215,0.04859999999999998,5.000049991798719,-0.09488372838901253,0.08733741586760918,0
1216,0.04864000000000002,4.99972120164681,-0.07844423869021762,0.07089152639830985,0
1217,0.04868000000000006,5.000049991798719,-0.059045640425562415,0.05148646613394041,0
1218,0.0487200000000001,4.99972120164681,-0.03964704170886384,0.032081343201056677,0
1219,0.048759999999999915,5.000378781950543,-0.01564538504817102,0.008073100121474497,0
1220,0.048799999999999955,5.000049991798719,0.008685062126061585,-0.016263995659556704,0
1221,0.048839999999999995,4.999063621342738,0.0353170388840013,-0.04290268319638066,0
1222,0.048880000000000035,4.99972120164681,0.061949016467688606,-0.06954143371418545,0
1223,0.048920000000000075,5.000378781950543,0.08989615431804343,-0.0974954066360094,0
1224,0.048960000000000115,5.000378781950543,0.11718571331566852,-0.12479186282354429,0
1225,0.04899999999999993,5.000049991798719,0.14513285292192996,-0.1527459617182154,0
1226,0.04903999999999997,5.000049991798719,0.16979209447845212,-0.17741222464067594,0
1227,0.04908000000000001,5.000049991798719,0.1937937569092451,-0.20142097049293434,0
1228,0.04912000000000005,5.000049991798719,0.21319236125582722,-0.22082672029347664,0
1229,0.04916000000000009,4.99972120164681,0.22700153748246513,-0.2346431039825066,0
1230,0.04919999999999991,5.000378781950543,0.23916676433040185,-0.24681560027617336,0
1231,0.04923999999999995,4.99972120164681,0.2447561929359981,-0.25241236028471287,0
1232,0.04927999999999999,5.000049991798719,0.24738651229150943,-0.2550500729732254,0
1233,0.04932000000000003,4.99972120164681,0.24738651229150943,-0.25505752820809846,0
1234,0.04936000000000007,5.000049991798719,0.24278345342427698,-0.2504619864483945,0
1235,0.04940000000000011,5.000049991798719,0.2371940248306282,-0.24488013680468307,0
1236,0.04943999999999993,5.000049991798719,0.22798790722089796,-0.2356816599560216,0
1237,0.04947999999999997,5.000378781950543,0.2184529997938034,-0.22615445506881918,0
1238,0.04952000000000001,5.000049991798719,0.20826051265398074,-0.21596973221437396,0
1239,0.04956000000000005,5.000378781950543,0.19741044582385264,-0.20512749138074,0
1240,0.04960000000000009,5.000378781950543,0.18557400942968563,-0.19329894265878514,0
1241,0.049639999999999906,5.000049991798719,0.1740663630838078,-0.1817992456244083,0
1242,0.049679999999999946,5.000049991798719,0.16288750677424663,-0.17062840022817688,0
1243,0.049719999999999986,5.000378781950543,0.15401017980404885,-0.16175914573464645,0
1244,0.049760000000000026,5.000049991798719,0.1444752731563955,-0.1522323730874756,0
1245,0.049800000000000066,5.000049991798719,0.1346115767316295,-0.14237687214645334,0
1246,0.049840000000000106,4.99972120164681,0.12639182979460575,-0.13416538213484924,0
1247,0.049879999999999924,4.99972120164681,0.1181720829338278,-0.12595395359854988,0
1248,0.049919999999999964,4.999392411494816,0.11225386524140141,-0.12004411558601247,0
1249,0.049960000000000004,5.000707572102282,0.10666443745724652,-0.11446312879247689,0
1250,0.050000000000000044,5.000049991798719,0.10008864010957542,-0.10789583370044391,0
1251,0.050040000000000084,5.000049991798719,0.09680074145419928,-0.10461649851898205,0
1252,0.0500799999999999,5.000049991798719,0.09318405294752126,-0.10100843465672078,0
1253,0.05011999999999994,5.000378781950543,0.08890978473160849,-0.09674285220692268,0
1254,0.05015999999999998,4.99972120164681,0.08562188611819377,-0.09346370043148498,0
1255,0.05020000000000002,5.000707572102282,0.08233398751715135,-0.09018460968941555,0
1256,0.05024000000000006,4.99972120164681,0.07937487878680298,-0.0872343697871391,0
1257,0.0502800000000001,5.000049991798719,0.07773092949650393,-0.0855993502410833,0
1258,0.05031999999999992,4.99972120164681,0.07641577006649763,-0.08429318141753384,0
1259,0.05035999999999996,4.99972120164681,0.07542940049529606,-0.0833158632600148,0
1260,0.0504,5.000378781950543,0.07444303092521187,-0.0823386058548211,0
1261,0.05044000000000004,5.000049991798719,0.07279908164422239,-0.08070382943288236,0
1262,0.05048000000000008,5.000049991798719,0.07181271207711976,-0.0797266933609134,0
1263,0.0505199999999999,5.000378781950543,0.07181271207711976,-0.07973598743302301,0
1264,0.05055999999999994,5.000378781950543,0.07082634251113593,-0.07875897245598842,0
1265,0.05059999999999998,5.000378781950543,0.07049755265605667,-0.0784395976455326,0
1266,0.05064000000000002,4.999392411494816,0.07016876280110178,-0.078120283228681,0
1267,0.05068000000000006,4.99972120164681,0.06983997294627126,-0.0778010291422108,0
1268,0.0507200000000001,5.000049991798719,0.06951118309156513,-0.07748183532187101,0
1269,0.050759999999999916,5.000378781950543,0.06918239323698341,-0.07716270170238275,0
1270,0.050799999999999956,5.000378781950543,0.06951118309156513,-0.07750120792647884,0
1271,0.050839999999999996,5.000049991798719,0.06852481352819326,-0.07652461479970901,0
1272,0.050880000000000036,5.000049991798719,0.06852481352819326,-0.0765344512350389,0
1273,0.050920000000000076,5.000049991798719,0.06885360338252611,-0.07687313745404331,0
1274,0.050960000000000116,4.99972120164681,0.06753844396594139,-0.07556793426105972,0
1275,0.050999999999999934,5.000378781950543,0.06688086425839593,-0.07492037056460714,0
1276,0.051039999999999974,5.000049991798719,0.0672096541121064,-0.07525923614443922,0
1277,0.051080000000000014,5.000378781950543,0.06655207440480995,-0.07461179180480527,0
1278,0.051120000000000054,5.000378781950543,0.06655207440480995,-0.07462198673949658,0
1279,0.051160000000000094,5.000049991798719,0.06655207440480995,-0.0746322411656808,0
1280,0.05119999999999991,5.000378781950543,0.06655207440480995,-0.07464255500679857,0
1281,0.05123999999999995,5.000049991798719,0.06622328455134852,-0.07432413833180611,0
1282,0.05127999999999999,5.000049991798719,0.06622328455134852,-0.07433457076902165,0
1283,0.05132000000000003,5.000049991798719,0.06556570484479929,-0.07368748267880804,0
1284,0.05136000000000007,5.000049991798719,0.06457933528590981,-0.07271166383472635,0
1285,0.05140000000000011,5.000049991798719,0.06359296572814185,-0.0717359040085698,0
1286,0.05143999999999993,5.000049991798719,0.06326417587580183,-0.07141778282195593,0
1287,0.05147999999999997,5.000049991798719,0.0626065961714958,-0.0707709306337823,0
1288,0.05152000000000001,5.000378781950543,0.061949016467688606,-0.07012413721178623,0
1289,0.05156000000000005,4.999392411494816,0.06162022661597208,-0.06980619232181381,0
1290,0.05160000000000009,4.99972120164681,0.06162022661597208,-0.06981709587672748,0
1291,0.05163999999999991,4.999392411494816,0.059647487508292976,-0.06785531882935114,0
1292,0.05167999999999995,4.99972120164681,0.05997627735926084,-0.0681951291572142,0
1293,0.05171999999999999,5.000049991798719,0.06063385706157101,-0.06886378766319981,0
1294,0.05176000000000003,5.000378781950543,0.05931869765744993,-0.06755976529870725,0
1295,0.05180000000000007,4.99972120164681,0.05767474840510757,-0.06592701123010504,0
1296,0.05184000000000011,5.000378781950543,0.05800353825532628,-0.06626705431532044,0
1297,0.051879999999999926,4.99972120164681,0.05800353825532628,-0.06627836550770566,0
1298,0.051919999999999966,4.99972120164681,0.056688378855200935,-0.06497457516247392,0
1299,0.051960000000000006,5.000378781950543,0.05504442960785576,-0.06334205273663922,0
1300,0.052000000000000046,4.99972120164681,0.05603079915588792,-0.06433990677589663,0
1301,0.052040000000000086,4.99972120164681,0.05537321945707481,-0.06369386914011169,0
1302,0.052079999999999904,5.000049991798719,0.05570200930641887,-0.06403425852536597,0
1303,0.052119999999999944,5.000049991798719,0.05537321945707481,-0.06371712558488513,0
1304,0.052159999999999984,5.000049991798719,0.05504442960785576,-0.06340004991654571,0
1305,0.052200000000000024,4.999392411494816,0.05603079915588792,-0.06439819081553069,0
1306,0.052240000000000064,5.000049991798719,0.05603079915588792,-0.06441001923360758,0
1307,0.052280000000000104,5.000049991798719,0.054058060060948765,-0.06244916551991523,0
1308,0.05231999999999992,5.000378781950543,0.05438684990979273,-0.06278989760821752,0
1309,0.05235999999999996,5.000049991798719,0.05537321945707481,-0.0637882661472075,0
1310,0.0524,5.000049991798719,0.05537321945707481,-0.06380032178420042,0
1311,0.05244000000000004,5.000049991798719,0.05537321945707481,-0.06381243395851194,0
1312,0.05248000000000008,4.999392411494816,0.05504442960785576,-0.06349581271195578,0
1313,0.0525199999999999,5.000707572102282,0.05504442960785576,-0.06350803763300292,0
1314,0.05255999999999994,4.99972120164681,0.054058060060948765,-0.06253394921456118,0
1315,0.05259999999999998,5.000049991798719,0.05471563975876172,-0.06320386613629339,0
1316,0.05264000000000002,5.000378781950543,0.05635958900548195,-0.06486020858942577,0
1317,0.05268000000000006,5.000707572102282,0.05603079915588792,-0.06454386781477978,0
1318,0.0527200000000001,4.999392411494816,0.05537321945707481,-0.06389879294449846,0
1319,0.05275999999999992,5.000049991798719,0.05570200930641887,-0.06424014326001173,0
1320,0.05279999999999996,4.999392411494816,0.05635958900548195,-0.06491033894594181,0
1321,0.05284,5.000378781950543,0.056688378855200935,-0.06525180018529358,0
1322,0.05288000000000004,4.99972120164681,0.05833232810566989,-0.06690847610923778,0
1323,0.05292000000000008,5.000049991798719,0.05833232810566989,-0.0669212579466419,0
1324,0.052959999999999896,5.000378781950543,0.06063385706157101,-0.06923562378297322,0
1325,0.052999999999999936,5.000049991798719,0.0626065961714958,-0.07122125469446335,0
1326,0.053039999999999976,5.000707572102282,0.06392175558060653,-0.07254936070339651,0
1327,0.053080000000000016,5.001036362253937,0.06622328455134852,-0.07486389094835413,0
1328,0.053120000000000056,5.000049991798719,0.06819602367398483,-0.07684968589475052,0
1329,0.053160000000000096,5.000049991798719,0.0714839222216675,-0.08015069468990534,0
1330,0.053199999999999914,5.000378781950543,0.07345666135624548,-0.08213659836885269,0
1331,0.053239999999999954,4.99972120164681,0.07411424106876553,-0.08280739679484313,0
1332,0.053279999999999994,5.001036362253937,0.0787172990703113,-0.08742372755018393,0
1333,0.053320000000000034,5.000378781950543,0.0813476179392533,-0.0900673730834903,0
1334,0.053360000000000074,5.000049991798719,0.08627946583988738,-0.09501260142832513,0
1335,0.053400000000000114,5.000378781950543,0.08726583542335548,-0.09601240510412087,0
1336,0.05343999999999993,5.000378781950543,0.09285526308401794,-0.10161532037255318,0
1337,0.05347999999999997,4.99972120164681,0.09778711104951865,-0.10656070932760726,0
1338,0.05352000000000001,5.000049991798719,0.10173258944188096,-0.11051978195667497,0
1339,0.05356000000000005,5.000378781950543,0.10403411851227598,-0.11283495837532442,0
1340,0.05360000000000009,5.000049991798719,0.10830838680184553,-0.11712292698812436,0
1341,0.05363999999999991,5.000378781950543,0.11192507537076382,-0.12075336871770717,0
1342,0.05367999999999995,5.000378781950543,0.11521297408265467,-0.12405507328918758,0
1343,0.05371999999999999,5.000378781950543,0.11948724242641957,-0.128343200051992,0
1344,0.05376000000000003,5.000378781950543,0.12277514116645709,-0.13164500963007925,0
1345,0.05380000000000007,5.000049991798719,0.12606303991870926,-0.13494687149798806,0
1346,0.05384000000000011,5.000378781950543,0.13099488806995954,-0.13989273490013687,0
1347,0.05387999999999993,5.000049991798719,0.13428278685268735,-0.14319470092567946,0
1348,0.05391999999999997,4.99972120164681,0.1382282654080184,-0.14715429857145645,0
1349,0.05396000000000001,5.000049991798719,0.1421737439808442,-0.15111394793711636,0
1350,0.05400000000000005,4.99972120164681,0.1441464832738101,-0.15310090957910494,0
1351,0.05404000000000009,4.99972120164681,0.14776317198891464,-0.1567318720522658,0
1352,0.054079999999999906,5.000707572102282,0.15105107083354244,-0.16003409591587475,0
1353,0.054119999999999946,4.999392411494816,0.15401017980404885,-0.1630075810172258,0
1354,0.054159999999999986,5.000378781950543,0.1566404988971596,-0.16565232720303202,0
1355,0.054200000000000026,5.000707572102282,0.15861323822206289,-0.1676395444315194,0
1356,0.054240000000000066,5.000378781950543,0.16091476743993832,-0.16995560221195732,0
1357,0.054280000000000106,5.000049991798719,0.16387387644302698,-0.17292929028372986,0
1358,0.054319999999999924,5.000378781950543,0.16814814502025893,-0.17721818828196492,0
1359,0.054359999999999964,5.000378781950543,0.16979209447845212,-0.17887681735873465,0
1360,0.054400000000000004,5.000378781950543,0.1740663630838078,-0.18316581562455236,0
1361,0.054440000000000044,5.000378781950543,0.17702547213016373,-0.18613970421662704,0
1362,0.054480000000000084,5.000378781950543,0.18064216097778074,-0.18977122233765134,0
1363,0.0545199999999999,5.000378781950543,0.1812997407698131,-0.1904436809722736,0
1364,0.05455999999999994,5.000378781950543,0.18327248014878164,-0.19243134860357267,0
1365,0.05459999999999998,5.000049991798719,0.1862315892253052,-0.19540543518179065,0
1366,0.05464000000000002,5.000049991798719,0.18327248014878164,-0.19246135269501563,0
1367,0.05468000000000006,4.999063621342738,0.18097095087373707,-0.1901748989355326,0
1368,0.0547200000000001,5.000378781950543,0.17439515297736766,-0.18361422531736693,0
1369,0.05475999999999992,5.001036362253937,0.16814814502025893,-0.17738239023700525,0
1370,0.05479999999999996,4.998406041038327,0.15039349106364885,-0.1596429575906604,0
1371,0.05484,5.003995473615012,0.14052979457337558,-0.14979453067822113,0
1372,0.05488000000000004,5.000049991798719,0.12047361204714746,-0.12975366583052356,0
1373,0.05492000000000008,4.999063621342738,0.10140379957517373,-0.11069921896998385,0
1374,0.0549599999999999,5.002022732708393,0.08693704556207577,-0.09624787833251107,0
1375,0.05499999999999994,4.9970908804284875,0.06326417587580183,-0.07259046961642349,0
1376,0.05503999999999998,5.001365152405508,0.04748226311035131,-0.05682406524517439,0
1377,0.05508000000000002,5.000707572102282,0.02117907581044083,-0.03053643359201992,0
1378,0.05512000000000006,5.000378781950543,0.00013652655288240445,-0.009509487061398897,0
1379,0.0551600000000001,5.001365152405508,-0.020577232363083744,0.011188622220732802,0
1380,0.055199999999999916,5.000049991798719,-0.04161978058197445,0.03221547407308567,0
1381,0.055239999999999956,5.000049991798719,-0.059045640425562415,0.049625590992533775,0
1382,0.055279999999999996,4.99972120164681,-0.07449876111382696,0.06506292237506373,0
1383,0.055320000000000036,5.000707572102282,-0.08765035296190492,0.07819867871272349,0
1384,0.055360000000000076,5.000378781950543,-0.09784283649996468,0.08837528071349462,0
1385,0.055400000000000116,5.000049991798719,-0.10639137098284411,0.09690788781092799,0
1386,0.055439999999999934,5.000707572102282,-0.1103368484064295,0.10083739218052071,0
1387,0.055479999999999974,5.000707572102282,-0.11329595646164246,0.10378048169370144,0
