,seconds,Trig,EMG_amplitude,EMG_amplitude_filter,peaks
0,0.0,5.000378781950543,0.02315181482994949,0.003424221747785925,0
1,4.0000000000040004e-05,5.000378781950543,0.022823024993048696,0.003743669740447266,0
2,8.000000000008001e-05,5.000049991798719,0.024466974178816228,0.002090324690755584,0
3,0.00011999999999989797,5.000049991798719,0.02315181482994949,0.0033960341377275213,0
4,0.00015999999999993797,5.000378781950543,0.022494235156274286,0.004044109853645305,0
5,0.00019999999999997797,5.000378781950543,0.023809394504130166,0.0027193924746720544,0
6,0.00024000000000001798,5.000378781950543,0.02315181482994949,0.0033673600272733964,0
7,0.000280000000000058,5.000049991798719,0.023809394504130166,0.0027001141243453873,0
8,0.000320000000000098,4.99972120164681,0.02216544531962629,0.004334342956624509,0
9,0.00035999999999991594,5.000378781950543,0.02117907581044083,0.005310937974195648,0
10,0.00039999999999995595,5.000378781950543,0.024795764016348754,0.0016844211217695924,0
11,0.00043999999999999595,5.000378781950543,0.02315181482994949,0.0033184874916312107,0
12,0.00048000000000003595,5.000049991798719,0.023809394504130166,0.002650970816176875,0
13,0.000520000000000076,4.99972120164681,0.022494235156274286,0.003956138963706398,0
14,0.0005599999999998939,5.000378781950543,0.024466974178816228,0.00197335452786917,0
15,0.0005999999999999339,5.000049991798719,0.02315181482994949,0.0032784142369565133,0
16,0.0006399999999999739,5.000378781950543,0.02315181482994949,0.003268260357579535,0
17,0.0006800000000000139,5.000049991798719,0.022823024993048696,0.0035868420627945983,0
18,0.0007200000000000539,5.001365152405508,0.024466974178816228,0.0019326304807243439,0
19,0.0007600000000000939,5.000707572102282,0.02315181482994949,0.003237473156766667,0
20,0.0007999999999999119,4.99972120164681,0.021836655483104705,0.0045422615427647695,0
21,0.0008399999999999519,5.001036362253937,0.02315181482994949,0.003216676935955192,0
22,0.0008799999999999919,5.000378781950543,0.022823024993048696,0.0035349872030825675,0
23,0.0009200000000000319,5.000378781950543,0.022494235156274286,0.0038532431499903566,0
24,0.0009600000000000719,5.000378781950543,0.022494235156274286,0.003842654930152501,0
25,0.001000000000000112,5.000378781950543,0.022823024993048696,0.003503222534098097,0
26,0.0010399999999999299,4.99972120164681,0.022494235156274286,0.0038213154630871884,0
27,0.0010799999999999699,5.000049991798719,0.021836655483104705,0.004468143871311258,0
28,0.0011200000000000099,5.000049991798719,0.02085028597429857,0.005443707749765724,0
29,0.0011600000000000499,5.000049991798719,0.021507865646709548,0.004775268073760435,0
30,0.0012000000000000899,5.001036362253937,0.021836655483104705,0.004435563853101884,0
31,0.0012399999999999078,5.000378781950543,0.02216544531962629,0.004095805244632004,0
32,0.0012799999999999478,5.000378781950543,0.02315181482994949,0.0030984125680709592,0
33,0.0013199999999999878,5.000049991798719,0.022823024993048696,0.0034161248382514743,0
34,0.0013600000000000279,5.000049991798719,0.023480604666976643,0.0027474131913402416,0
35,0.0014000000000000679,5.000378781950543,0.024466974178816228,0.001749857294886665,0
36,0.0014400000000001079,4.99972120164681,0.024795764016348754,0.0014098266561551765,0
37,0.0014799999999999258,5.000707572102282,0.026110923367741706,8.337208243803769e-05,0
38,0.0015199999999999658,5.000707572102282,0.025782133529704057,0.000400812272900594,0
39,0.0015600000000000058,5.000378781950543,0.0264397132059056,-0.000268171479837492,0
40,0.0016000000000000458,5.000378781950543,0.028083662398618273,-0.0019235791813430438,0
41,0.0016400000000000858,5.000707572102282,0.028083662398618273,-0.001935092125270977,0
42,0.0016799999999999038,4.99972120164681,0.028741242076586612,-0.0026042391847642668,0
43,0.0017199999999999438,5.000049991798719,0.028741242076586612,-0.002615861005930928,0
44,0.0017599999999999838,5.000707572102282,0.029070031915759978,-0.002956327107539544,0
45,0.0018000000000000238,5.000378781950543,0.029727611594485073,-0.003625637491176976,0
46,0.0018400000000000638,5.000049991798719,0.0313715607935042,-0.005281371838375138,0
47,0.0018800000000001038,5.000378781950543,0.03202914047399413,-0.005950791110681005,0
48,0.0019199999999999218,5.000378781950543,0.03268672015498804,-0.006620264827078047,0
49,0.0019599999999999618,5.000049991798719,0.030385191273714543,-0.004330684424324802,0
50,0.0020000000000000018,4.99972120164681,0.031700350633686175,-0.005657846705042787,0
51,0.0020400000000000418,5.000707572102282,0.03202914047399413,-0.005998693907010813,0
52,0.002080000000000082,5.000378781950543,0.03334429983648583,-0.007325965070341972,0
53,0.0021199999999998997,5.000049991798719,0.0353170388840013,-0.009310870355719515,0
54,0.0021599999999999397,5.001365152405508,0.03696098809372539,-0.010967040237748575,0
55,0.0021999999999999797,4.998406041038327,0.033015509995673945,-0.007033837243441825,0
56,0.0022400000000000198,5.000707572102282,0.03564582872569445,-0.009676485505219603,0
57,0.0022800000000000598,5.000378781950543,0.03465945920099257,-0.008702499936436021,0
58,0.0023200000000000998,4.99972120164681,0.03400187951848738,-0.008057358629733669,0
59,0.0023599999999999177,5.000049991798719,0.036303408409458296,-0.010371380311690097,0
60,0.0023999999999999577,5.002022732708393,0.030713981113518377,-0.004794500216790607,0
61,0.0024399999999999977,5.001036362253937,0.03334429983648583,-0.00743742054529929,0
62,0.0024800000000000377,4.998734831190575,0.036303408409458296,-0.010409185122332847,0
63,0.0025200000000000777,4.99972120164681,0.033015509995673945,-0.007133997104721212,0
64,0.0025599999999998957,5.001693942556992,0.03827614746376892,-0.012407399354264506,0
65,0.0025999999999999357,5.001036362253937,0.03893372714954513,-0.013077798199500421,0
66,0.0026399999999999757,5.000378781950543,0.037947357621069405,-0.012104302200802922,0
67,0.0026800000000000157,5.000049991798719,0.037947357621069405,-0.012117230092777674,0
68,0.0027200000000000557,5.000049991798719,0.03827614746376892,-0.01245900218109698,0
69,0.0027600000000000957,5.000049991798719,0.03860493730659416,-0.012800828614205548,0
70,0.0027999999999999137,4.99972120164681,0.03860493730659416,-0.012813919539740506,0
71,0.0028399999999999537,5.000707572102282,0.039920096679152195,-0.014142224163242356,0
72,0.0028799999999999937,5.000049991798719,0.039920096679152195,-0.01415542372932093,0
73,0.0029200000000000337,5.000049991798719,0.040577676366185214,-0.014826257286861455,0
74,0.0029600000000000737,5.000378781950543,0.0392625169926218,-0.013524406077096514,0
75,0.0029999999999998916,5.000378781950543,0.039920096679152195,-0.01419534820914579,0
76,0.0030399999999999316,5.000049991798719,0.039920096679152195,-0.014208764924381513,0
77,0.0030799999999999716,5.000707572102282,0.039920096679152195,-0.014222235896897093,0
78,0.0031200000000000117,5.000378781950543,0.0392625169926218,-0.013578181427291326,0
79,0.0031600000000000517,4.99972120164681,0.040577676366185214,-0.014906920248883373,0
80,0.0032000000000000917,4.99972120164681,0.0392625169926218,-0.013605394540712919,0
81,0.0032399999999999096,4.99972120164681,0.04090646620989019,-0.015263031626563832,0
82,0.0032799999999999496,5.000049991798719,0.039920096679152195,-0.01429040415298775,0
83,0.0033199999999999896,5.000707572102282,0.03959130683582415,-0.013975410540355011,0
84,0.0033600000000000296,4.99972120164681,0.04024888652260587,-0.014646840615883241,0
85,0.0034000000000000696,5.000049991798719,0.03827614746376892,-0.012688006087925193,0
86,0.0034400000000001096,5.000378781950543,0.039920096679152195,-0.014345913959963945,0
87,0.0034799999999999276,5.000378781950543,0.03893372714954513,-0.013373557195995797,0
88,0.0035199999999999676,5.000378781950543,0.03893372714954513,-0.013387624053387328,0
89,0.0035600000000000076,4.99972120164681,0.039920096679152195,-0.014388114514469637,0
90,0.0036000000000000476,5.001036362253937,0.03860493730659416,-0.013087130129363241,0
91,0.0036400000000000876,5.000707572102282,0.04024888652260587,-0.014745308370256931,0
92,0.0036799999999999056,4.99972120164681,0.03827614746376892,-0.01278685235474717,0
93,0.0037199999999999456,4.999392411494816,0.03860493730659416,-0.013129979239920223,0
94,0.0037599999999999856,5.000378781950543,0.037947357621069405,-0.012486790575899518,0
95,0.0038000000000000256,5.000707572102282,0.03696098809372539,-0.011514866028911231,0
96,0.0038400000000000656,5.000378781950543,0.037618567778495635,-0.012186944632143763,0
97,0.0038800000000001056,4.999392411494816,0.03663219825152894,-0.01121512794055988,0
98,0.0039199999999999235,5.000049991798719,0.036303408409458296,-0.010900944829165274,0
99,0.0039599999999999635,5.000049991798719,0.03827614746376892,-0.012888344487376285,0
100,0.0040000000000000036,5.000049991798719,0.037947357621069405,-0.012574269099290686,0
101,0.0040400000000000436,5.000378781950543,0.03564582872569445,-0.010287508486290117,0
102,0.0040800000000000836,5.000707572102282,0.0353170388840013,-0.009973540731336165,0
103,0.0041199999999999015,5.000049991798719,0.03564582872569445,-0.010317206440294793,0
104,0.0041599999999999415,5.000049991798719,0.0353170388840013,-0.010003346222111631,0
105,0.0041999999999999815,4.999392411494816,0.03663219825152894,-0.011333488944668495,0
106,0.0042400000000000215,5.000049991798719,0.037947357621069405,-0.012663685375588266,0
107,0.0042800000000000615,5.000049991798719,0.037289777936047624,-0.012021196432682544,0
108,0.0043200000000001015,5.000378781950543,0.037289777936047624,-0.012036340829477516,0
109,0.0043599999999999195,5.000707572102282,0.037947357621069405,-0.012709118539470543,0
110,0.0043999999999999595,5.000378781950543,0.03860493730659416,-0.013381949851195072,0
111,0.0044399999999999995,4.99972120164681,0.037947357621069405,-0.012739675365705458,0
112,0.0044800000000000395,4.99972120164681,0.037289777936047624,-0.012097454426715294,0
113,0.0045200000000000795,5.000049991798719,0.03860493730659416,-0.013428026061005023,0
114,0.0045599999999998975,5.000378781950543,0.03860493730659416,-0.013443491813728593,0
115,0.0045999999999999375,5.000049991798719,0.03893372714954513,-0.013787800869205696,0
116,0.0046399999999999775,4.99972120164681,0.0392625169926218,-0.01413216335498639,0
117,0.0046800000000000175,5.000049991798719,0.03959130683582415,-0.014476579240998813,0
118,0.0047200000000000575,5.000378781950543,0.03959130683582415,-0.014492258653395712,0
119,0.0047600000000000975,5.000049991798719,0.03893372714954513,-0.01385041171813349,0
120,0.0047999999999999154,5.000049991798719,0.03827614746376892,-0.013208618090579102,0
121,0.0048399999999999554,5.000049991798719,0.04024888652260587,-0.015197196482979717,0
122,0.0048799999999999955,5.000049991798719,0.040577676366185214,-0.01554187890315296,0
123,0.0049200000000000355,4.99972120164681,0.040577676366185214,-0.015557824690016804,0
124,0.0049600000000000755,5.000378781950543,0.041564045897676996,-0.01656019318543312,0
125,0.004999999999999893,5.000378781950543,0.04090646620989019,-0.015918665604973167,0
126,0.005039999999999933,5.000049991798719,0.04090646620989019,-0.01593477082159457,0
127,0.005079999999999973,5.000049991798719,0.04090646620989019,-0.01595092911295312,0
128,0.005120000000000013,4.99972120164681,0.04024888652260587,-0.015309560756757212,0
129,0.005160000000000053,4.999392411494816,0.040577676366185214,-0.015654614935697416,0
130,0.0052000000000000934,5.000049991798719,0.03959130683582415,-0.014684562709061974,0
131,0.005239999999999911,4.99972120164681,0.04090646620989019,-0.016016092318860177,0
132,0.005279999999999951,4.99972120164681,0.04090646620989019,-0.016032515449789984,0
133,0.005319999999999991,5.000049991798719,0.040577676366185214,-0.015720201594952615,0
134,0.005360000000000031,4.99972120164681,0.039920096679152195,-0.015079150717014003,0
135,0.005400000000000071,4.99972120164681,0.04024888652260587,-0.015424522151626568,0
136,0.005440000000000111,5.000049991798719,0.039920096679152195,-0.015112366642782406,0
137,0.005479999999999929,4.99972120164681,0.040577676366185214,-0.01578663336881001,0
138,0.005519999999999969,5.000378781950543,0.03959130683582415,-0.014817003542311153,0
139,0.005560000000000009,5.000049991798719,0.04024888652260587,-0.015491375557853137,0
140,0.005600000000000049,5.000378781950543,0.04024888652260587,-0.015508220471089594,0
141,0.005640000000000089,5.000049991798719,0.039920096679152195,-0.015196328084474159,0
142,0.005679999999999907,5.000378781950543,0.0392625169926218,-0.014555698357056711,0
143,0.005719999999999947,5.000378781950543,0.04024888652260587,-0.01555907030664853,0
144,0.005759999999999987,4.99972120164681,0.04024888652260587,-0.01557612514451822,0
145,0.005800000000000027,4.99972120164681,0.039920096679152195,-0.01526444251451018,0
146,0.005840000000000067,5.000378781950543,0.04189283574175878,-0.017254341122999117,0
147,0.005880000000000107,5.000049991798719,0.041564045897676996,-0.016942763113643677,0
148,0.005919999999999925,5.000378781950543,0.043865574808886185,-0.019261556104376923,0
149,0.005959999999999965,4.99972120164681,0.04255041543029908,-0.017963713005611583,0
150,0.006000000000000005,5.000049991798719,0.04090646620989019,-0.01633713222036836,0
151,0.006040000000000045,5.000049991798719,0.0392625169926218,-0.014710603548201848,0
152,0.006080000000000085,4.99972120164681,0.036303408409458296,-0.011768967574214728,0
153,0.006119999999999903,5.000049991798719,0.0323579303144281,-0.00784101410611965,0
154,0.006159999999999943,5.000378781950543,0.028412452237539368,-0.003913112627154749,0
155,0.006199999999999983,5.000049991798719,0.023809394504130166,0.0006723165845662158,0
156,0.006240000000000023,5.000378781950543,0.018877546960101396,0.005586483730821115,0
157,0.006280000000000063,5.000378781950543,0.01295932994485767,0.01148696852033861,0
158,0.006320000000000103,5.000049991798719,0.008356272294735026,0.016072242165370513,0
159,0.006359999999999921,4.99972120164681,0.003753214669504526,0.020657464055188327,0
160,0.006399999999999961,5.000049991798719,-0.0015074225859438989,0.025900213894399428,0
161,0.006440000000000001,5.000707572102282,-0.007096849634115457,0.03147170189546121,0
162,0.006480000000000041,4.99972120164681,-0.011042327528263687,0.03539918916203449,0
163,0.006520000000000081,5.000378781950543,-0.015316595226152155,0.039655414702745154,0
164,0.006559999999999899,4.99972120164681,-0.018275703619711994,0.042596429460841745,0
165,0.006599999999999939,4.99972120164681,-0.02090602218305261,0.045208602962206225,0
166,0.006639999999999979,5.000378781950543,-0.02320755091924319,0.047491935262135465,0
167,0.006680000000000019,4.99972120164681,-0.026166659285104213,0.0504327958701327,0
168,0.006720000000000059,4.99972120164681,-0.028139398189897927,0.05238723574859816,0
169,0.006760000000000099,5.000378781950543,-0.029783347273691016,0.05401283459119174,0
170,0.006799999999999917,4.99972120164681,-0.03372882506167206,0.05793991097715041,0
171,0.006839999999999957,4.99972120164681,-0.03668793339048888,0.06088056679762552,0
172,0.006879999999999997,5.000378781950543,-0.03767430283110791,0.061848432678542065,0
173,0.006920000000000037,5.000049991798719,-0.04260615001678679,0.06676172530857137,0
174,0.006960000000000077,5.000049991798719,-0.047537997173404054,0.07167496696946062,0
175,0.006999999999999895,5.000049991798719,-0.05082589526164695,0.0749442086782206,0
176,0.007039999999999935,5.000378781950543,-0.056415321981929514,0.08051492819204381,0
177,0.007079999999999975,4.99972120164681,-0.06331990787873677,0.08740075611264858,0
178,0.007120000000000015,5.000707572102282,-0.06890933451510713,0.09297137406076132,0
179,0.007160000000000055,5.001036362253937,-0.07811544889290346,0.10215862909638762,0
180,0.007200000000000095,4.99972120164681,-0.08469124481434036,0.10871551508033937,0
181,0.007239999999999913,5.000049991798719,-0.09389735901632983,0.11790266880858064,0
182,0.007279999999999953,5.000378781950543,-0.10145952417666172,0.1254458230184081,0
183,0.007319999999999993,5.000378781950543,-0.10836410969701198,0.13233134717145897,0
184,0.007360000000000033,5.000049991798719,-0.11296716667825839,0.13691529242902697,0
185,0.007400000000000073,4.99972120164681,-0.11559748494162976,0.13952644867321085,0
186,0.007440000000000113,5.000049991798719,-0.11395353602801415,0.13786328750622281,0
187,0.007479999999999931,4.999392411494816,-0.10902168926734575,0.13291217831977517,0
188,0.007519999999999971,5.000049991798719,-0.10113073438852911,0.12500191090500465,0
189,0.007560000000000011,5.000049991798719,-0.09126704068339796,0.11511885461643123,0
190,0.007600000000000051,5.000049991798719,-0.07877302848740105,0.10260542985264379,0
191,0.007640000000000091,5.000049991798719,-0.06496385689333826,0.08877679577003622,0
192,0.007679999999999909,4.99972120164681,-0.0498395258365333,0.07363295236797984,0
193,0.007719999999999949,4.99972120164681,-0.03635914357669136,0.06013300797068099,0
194,0.007759999999999989,4.99972120164681,-0.021892391642189743,0.045646644171471414,0
195,0.007800000000000029,5.000707572102282,-0.00808321910937683,0.03181781011210717,0
196,0.00784000000000007,4.99972120164681,0.004082004499051814,0.019632875381144565,0
197,0.00788000000000011,4.99972120164681,0.014932068945377922,0.008763050282615512,0
198,0.007919999999999927,5.000049991798719,0.023480604666976643,0.00019470444591129787,0
199,0.007959999999999967,5.000707572102282,0.030056401434036775,-0.006400951831937802,0
200,0.008000000000000007,5.000378781950543,0.0353170388840013,-0.0116814981207032,0
201,0.008040000000000047,5.000378781950543,0.037289777936047624,-0.013674195271438448,0
202,0.008080000000000087,5.000049991798719,0.03959130683582415,-0.015995731461215877,0
203,0.008119999999999905,5.000049991798719,0.03893372714954513,-0.015358208187221684,0
204,0.008159999999999945,4.99972120164681,0.03663219825152894,-0.01307678475429444,0
205,0.008199999999999985,5.000378781950543,0.033673089677423634,-0.010137830628150796,0
206,0.008240000000000025,5.000049991798719,0.028412452237539368,-0.0048973965487181335,0
207,0.008280000000000065,5.000378781950543,0.024138184341410046,-0.0006433808546964393,0
208,0.008320000000000105,5.000378781950543,0.01821996728971463,0.005254535224520188,0
209,0.008359999999999923,4.99972120164681,0.010986590948902406,0.012467561894218092,0
210,0.008399999999999963,5.000378781950543,0.005397163818512657,0.01803659072704418,0
211,0.008440000000000003,5.000049991798719,-0.0015074225859438989,0.024920730280124287,0
212,0.008480000000000043,4.99972120164681,-0.007425639459330238,0.030818451821408084,0
213,0.008520000000000083,5.000378781950543,-0.013672646114138112,0.037044914736923944,0
214,0.008559999999999901,5.000378781950543,-0.01926207308192608,0.042613749632216716,0
215,0.008599999999999941,5.000378781950543,-0.024193920375685754,0.047524956594713744,0
216,0.008639999999999981,5.000378781950543,-0.02781060837275358,0.051120956076636435,0
217,0.008680000000000021,4.999392411494816,-0.03208487598559902,0.05537448706578822,0
218,0.008720000000000061,4.99972120164681,-0.03438640469119987,0.05765523111492965,0
219,0.008760000000000101,5.000378781950543,-0.03767430283110791,0.06092229664184381,0
220,0.008799999999999919,5.000049991798719,-0.039975831521371616,0.06320294483925881,0
221,0.008839999999999959,5.000378781950543,-0.04194857039370768,0.06515475541601914,0
222,0.008879999999999999,4.99972120164681,-0.04293493982813261,0.06612014882971697,0
223,0.008920000000000039,5.000378781950543,-0.04622283793448369,0.06938702326821274,0
224,0.008960000000000079,4.998734831190575,-0.05049710545340523,0.07364021955062097,0
225,0.008999999999999897,5.002022732708393,-0.050168315645034,0.0732903110159954,0
226,0.009039999999999937,4.998734831190575,-0.05312742391571186,0.0762282531500411,0
227,0.009079999999999977,5.001365152405508,-0.052469844300912574,0.07554946006804111,0
228,0.009120000000000017,5.000707572102282,-0.05115468506975916,0.07421304011937357,0
229,0.009160000000000057,5.000707572102282,-0.04523646850393555,0.06827351566642317,0
230,0.009200000000000097,5.000378781950543,-0.03866067227056637,0.061676364457460636,0
231,0.009239999999999915,4.99972120164681,-0.028139398189897927,0.051133688394323404,0
232,0.009279999999999955,5.000378781950543,-0.01597417487006185,0.03894701616717896,0
233,0.009319999999999995,4.999392411494816,-0.004137741201439435,0.027089086748888953,0
234,0.009360000000000035,5.000378781950543,0.01032901128459894,0.012600791753748238,0
235,0.009400000000000075,4.99972120164681,0.02216544531962629,0.0007427685335520476,0
236,0.009439999999999893,5.000378781950543,0.03433066935967702,-0.01144409128392234,0
237,0.009479999999999933,5.000049991798719,0.046495893572083224,-0.023630997781752303,0
238,0.009519999999999973,4.99972120164681,0.05701716870504489,-0.034174001623440364,0
239,0.009560000000000013,4.99972120164681,0.06392175558060653,-0.04110036354589122,0
240,0.009600000000000053,5.000707572102282,0.06951118309156513,-0.04671161235631989,0
241,0.009640000000000093,5.000707572102282,0.0737854512124434,-0.05100774794322552,0
242,0.009679999999999911,5.000378781950543,0.07674455992381307,-0.05398877020071498,0
243,0.009719999999999951,4.99972120164681,0.07674455992381307,-0.05401072974002129,0
244,0.009759999999999991,5.000707572102282,0.07411424106876553,-0.05140241633012012,0
245,0.009800000000000031,5.000378781950543,0.07214150193269635,-0.04945172845725089,0
246,0.009840000000000071,5.000378781950543,0.06983997294627126,-0.04717229646385332,0
247,0.009880000000000111,5.000378781950543,0.0672096541121064,-0.04456412026387832,0
248,0.009919999999999929,5.000049991798719,0.06523691499171154,-0.04261356932973161,0
249,0.009959999999999969,4.99972120164681,0.06227780631952985,-0.039676694306314035,0
250,0.010000000000000009,4.99972120164681,0.060962646912913254,-0.038383813920997246,0
251,0.010040000000000049,5.000707572102282,0.059647487508292976,-0.03709097881979477,0
252,0.010080000000000089,5.000378781950543,0.05866111795613836,-0.03612697876232123,0
253,0.010119999999999907,5.000049991798719,0.05931869765744993,-0.036806973058285855,0
254,0.010159999999999947,4.99972120164681,0.05898990780673173,-0.03650064281046528,0
255,0.010199999999999987,4.999063621342738,0.059647487508292976,-0.037180727031005466,0
256,0.010240000000000027,4.99972120164681,0.06392175558060653,-0.04147754444578078,0
257,0.010280000000000067,4.99972120164681,0.06589449469801162,-0.043472877636096974,0
258,0.010320000000000107,5.000378781950543,0.06852481352819326,-0.04612583517617126,0
259,0.010359999999999925,5.000378781950543,0.07214150193269635,-0.04976520683364669,0
260,0.010399999999999965,4.99972120164681,0.07049755265605667,-0.048143985258723626,0
261,0.010440000000000005,5.000049991798719,0.07411424106876553,-0.051783445727124885,0
262,0.010480000000000045,4.999392411494816,0.07115513236633955,-0.048847153339166074,0
263,0.010520000000000085,5.001693942556992,0.06655207440480995,-0.04426695585524541,0
264,0.010559999999999903,5.000378781950543,0.06688086425839593,-0.0446186502535177,0
265,0.010599999999999943,4.997419670581074,0.05931869765744993,-0.037079432167840265,0
266,0.010639999999999983,5.001036362253937,0.056688378855200935,-0.034472105754516806,0
267,0.010680000000000023,4.999392411494816,0.04912621234330475,-0.026932975407848225,0
268,0.010720000000000063,4.999063621342738,0.04452315449893275,-0.022352997407221784,0
269,0.010760000000000103,5.001365152405508,0.0353170388840013,-0.013170005216341013,0
270,0.01079999999999992,4.99972120164681,0.0313715607935042,-0.009247694031558739,0
271,0.01083999999999996,5.003009103162085,0.026110923367741706,-0.004010266894106584,0
272,0.01088,5.003666683464122,0.024466974178816228,-0.0023895712765911927,0
273,0.01092000000000004,5.000049991798719,0.021507865646709548,0.0005462405009280871,0
274,0.01096000000000008,5.000378781950543,0.02085028597429857,0.0011804803359228826,0
275,0.010999999999999899,5.000378781950543,0.01821996728971463,0.003787416201035981,0
276,0.011039999999999939,5.000049991798719,0.01756238761983417,0.004421570170590125,0
277,0.011079999999999979,4.999392411494816,0.015918438447348998,0.006042050863517189,0
278,0.011120000000000019,5.000049991798719,0.011972960446309217,0.00996401770781471,0
279,0.011160000000000059,5.000049991798719,0.008027482463535476,0.013885941959133079,0
280,0.011200000000000099,5.000378781950543,0.001780475694892425,0.020109352524501516,0
281,0.011239999999999917,4.999063621342738,-0.005781690331979852,0.027647879979596064,0
282,0.011279999999999957,5.000049991798719,-0.0166317545134594,0.038474263324532604,0
283,0.011319999999999997,5.000707572102282,-0.027481818555480722,0.049300604369404616,0
284,0.011360000000000037,4.99972120164681,-0.0389894620834612,0.06078448284420896,0
285,0.011400000000000077,5.000049991798719,-0.05214105449331856,0.07391226824986274,0
286,0.011439999999999895,5.000049991798719,-0.06496385689333826,0.0867112218000702,0
287,0.011479999999999935,4.99972120164681,-0.07614271010627514,0.09786618442342361,0
288,0.011519999999999975,4.99972120164681,-0.08600640399234578,0.10770594608639508,0
289,0.011560000000000015,5.000378781950543,-0.09488372838901253,0.11655929673311981,0
290,0.011600000000000055,5.000049991798719,-0.10113073438852911,0.12278228756294086,0
291,0.011640000000000095,5.000707572102282,-0.10672016076886852,0.12834765746133658,0
292,0.011679999999999913,4.99972120164681,-0.10902168926734575,0.1306250882735421,0
293,0.011719999999999953,5.000378781950543,-0.11132321775935598,0.13290247798328686,0
294,0.011759999999999993,4.99972120164681,-0.11296716667825839,0.1345222471326778,0
295,0.011800000000000033,5.000378781950543,-0.11395353602801415,0.1354843958348368,0
296,0.011840000000000073,4.99972120164681,-0.1106656381908704,0.13217223658158367,0
297,0.011880000000000113,5.000378781950543,-0.10836410969701198,0.12984640601308736,0
298,0.01191999999999993,5.000378781950543,-0.10376105268990284,0.125219006383207,0
299,0.01195999999999997,5.000378781950543,-0.0971852569206733,0.1186188275538787,0
300,0.01200000000000001,4.99972120164681,-0.09291098964246501,0.1143201368894595,0
301,0.01204000000000005,5.000049991798719,-0.08732156316825516,0.10870624681455074,0
302,0.01208000000000009,5.000378781950543,-0.08271850604340404,0.1040786859865447,0
303,0.012119999999999909,5.000378781950543,-0.0791018182844538,0.10043745453442254,0
304,0.012159999999999949,5.000378781950543,-0.07449876111382696,0.09580981379345203,0
305,0.012199999999999989,5.000049991798719,-0.07252602231858225,0.09381245166394281,0
306,0.012240000000000029,4.99972120164681,-0.07318360191751903,0.09444536827835034,0
307,0.012280000000000069,5.000707572102282,-0.07252602231858225,0.09376308615867991,0
308,0.012320000000000109,5.000049991798719,-0.07252602231858225,0.09373834421620586,0
309,0.012359999999999927,5.000049991798719,-0.07351239171679176,0.09469993236506774,0
310,0.012399999999999967,5.000049991798719,-0.07121086311914367,0.09237358332646742,0
311,0.012440000000000007,4.99972120164681,-0.06923812431607472,0.09037598500651181,0
312,0.012480000000000047,5.000378781950543,-0.06331990787873677,0.08443287009242342,0
313,0.012520000000000087,5.000378781950543,-0.05805927101017365,0.07914729590371626,0
314,0.012559999999999905,4.999392411494816,-0.0498395258365333,0.07090257468340735,0
315,0.012599999999999945,5.001036362253937,-0.03635914357669136,0.05739717776763954,0
316,0.012639999999999985,5.000049991798719,-0.01991965272276132,0.04093263376619072,0
317,0.012680000000000025,5.000707572102282,-0.002165002240582567,0.02315289176296106,0
318,0.012720000000000065,5.000049991798719,0.01953512663099438,0.0014276331152574123,0
319,0.012760000000000105,5.000049991798719,0.04353678496405114,-0.022599193130150838,0
320,0.012799999999999923,5.000378781950543,0.06951118309156513,-0.04859879718699625,0
321,0.012839999999999963,5.000378781950543,0.09745832118428896,-0.07657117910639363,0
322,0.012880000000000003,4.99972120164681,0.12672061967062423,-0.10585875919671484,0
323,0.012920000000000043,5.000049991798719,0.15762686855906824,-0.1367903273460361,0
324,0.012960000000000083,5.000049991798719,0.18787553871644425,-0.1670643543003692,0
325,0.0129999999999999,5.000049991798719,0.217137840156473,-0.19635204995223368,0
326,0.01303999999999994,5.000378781950543,0.24640014253231585,-0.22563978383320066,0
327,0.01307999999999998,5.000378781950543,0.2727033364696813,-0.25196844644699956,0
328,0.01312000000000002,5.000049991798719,0.2950610518993585,-0.2743516676020528,0
329,0.01316000000000006,5.000049991798719,0.31380207847764385,-0.2931182368319032,0
330,0.0132000000000001,5.000049991798719,0.32596730645501254,-0.3053090442638866,0
331,0.013239999999999919,5.000378781950543,0.33221431547680463,-0.31158166941982,0
332,0.013279999999999959,5.000378781950543,0.33221431547680463,-0.31160732210958153,0
333,0.013319999999999999,5.000049991798719,0.32662488635011494,-0.3060435821039845,0
334,0.013360000000000039,5.000049991798719,0.3184051376940012,-0.29784955887562414,0
335,0.013400000000000079,5.000049991798719,0.3065686997542578,-0.2860388825452437,0
336,0.013439999999999896,5.000378781950543,0.2927595223452406,-0.2722555028017682,0
337,0.013479999999999936,5.000049991798719,0.2789503451389692,-0.25847215919140815,0
338,0.013519999999999976,5.000049991798719,0.264483588284316,-0.24403127173684902,0
339,0.013560000000000016,4.999392411494816,0.25067441149641523,-0.23024800002666138,0
340,0.013600000000000056,5.000049991798719,0.23555007525070892,-0.21514960440934827,0
341,0.013640000000000096,5.000378781950543,0.2217408988953935,-0.20136640410579276,0
342,0.013679999999999914,5.000378781950543,0.2099044621849689,-0.18955597874280797,0
343,0.013719999999999954,5.000378781950543,0.19741044582385264,-0.17708800889675227,0
344,0.013759999999999994,5.000378781950543,0.18557400942968563,-0.16527765405683548,0
345,0.013800000000000034,5.000707572102282,0.17472394287104745,-0.15445370396283517,0
346,0.013840000000000074,4.99972120164681,0.16288750677424663,-0.1426434191118876,0
347,0.013879999999999892,5.000049991798719,0.15269502026039275,-0.13247711849556068,0
348,0.013919999999999932,5.000378781950543,0.14348890350900304,-0.12329722216346156,0
349,0.013959999999999972,5.000049991798719,0.13494036661069325,-0.11477494007592855,0
350,0.014000000000000012,5.000049991798719,0.12803577917591782,-0.10789664171277236,0
351,0.014040000000000052,5.000378781950543,0.12211756141747197,-0.10200474715577897,0
352,0.014080000000000092,5.000049991798719,0.11751450318826591,-0.0974280461264847,0
353,0.01411999999999991,5.000049991798719,0.11455539433929632,-0.0944953283441484,0
354,0.01415999999999995,5.000707572102282,0.11258265511216159,-0.09254901391826748,0
355,0.01419999999999999,5.000049991798719,0.11093870575958677,-0.09093152296910392,0
356,0.01424000000000003,5.000049991798719,0.1112674956298565,-0.09128680471211842,0
357,0.01428000000000007,4.99972120164681,0.11192507537076382,-0.09197090966192004,0
358,0.01432000000000011,5.000378781950543,0.11324023485404966,-0.09331262755670652,0
359,0.014359999999999928,5.000049991798719,0.11356902472517753,-0.09366800890804011,0
360,0.014399999999999968,5.001365152405508,0.11258265511216159,-0.09270826370967636,0
361,0.014440000000000008,5.000049991798719,0.11159628550024885,-0.09174855131224718,0
362,0.014480000000000048,5.000049991798719,0.10765080706363755,-0.0878297627549803,0
363,0.014520000000000088,5.000378781950543,0.10173258944188096,-0.08193826754210376,0
364,0.014559999999999906,4.999392411494816,0.09351284281114798,-0.0737452757141075,0
365,0.014599999999999946,4.99972120164681,0.08332035709616414,-0.0635795770596854,0
366,0.014639999999999986,5.000707572102282,0.07181271207711976,-0.05209875122264444,0
367,0.014680000000000026,5.000049991798719,0.05603079915588792,-0.03634368946812368,0
368,0.014720000000000066,4.99972120164681,0.04090646620989019,-0.0212462395364608,0
369,0.014760000000000106,5.000707572102282,0.02315181482994949,-0.0035185028810461455,0
370,0.014799999999999924,5.000049991798719,0.004410794328726292,0.01519557132324012,0
371,0.014839999999999964,5.000049991798719,-0.014330225759327644,0.0339096136800732,0
372,0.014880000000000004,5.000049991798719,-0.03372882506167206,0.05328120395538545,0
373,0.014920000000000044,5.000378781950543,-0.05279863410837703,0.07232397281806437,0
374,0.014960000000000084,4.99972120164681,-0.06923812431607472,0.08873639182390335,0
375,0.014999999999999902,5.000049991798719,-0.08370487542946127,0.10317604085710275,0
376,0.015039999999999942,4.99972120164681,-0.09587009776051285,0.1153141303694849,0
377,0.015079999999999982,4.99972120164681,-0.10178831396466272,0.12120518315667048,0
378,0.015120000000000022,4.99972120164681,-0.10408984247698179,0.12347951779425789,0
379,0.015160000000000062,5.000378781950543,-0.10178831396466272,0.12115076509030662,0
380,0.015200000000000102,5.000049991798719,-0.09685646713083039,0.11619166388914659,0
381,0.01523999999999992,4.99972120164681,-0.08896551213519292,0.10827342449202843,0
382,0.01527999999999996,4.99972120164681,-0.07745786929788322,0.09673846736096385,0
383,0.01532,5.000378781950543,-0.06562143649826817,0.08487469051753381,0
384,0.01536000000000004,4.99972120164681,-0.052469844300912574,0.07169572466885156,0
385,0.01540000000000008,5.000049991798719,-0.0389894620834612,0.0581879393354434,0
386,0.015439999999999898,5.000049991798719,-0.025509079649145103,0.04468012446375412,0
387,0.015479999999999938,5.000049991798719,-0.012686276645394332,0.031829859844758446,0
388,0.015519999999999978,4.99972120164681,-0.002165002240582567,0.021281094790704558,0
389,0.015560000000000018,5.000049991798719,0.006383533309443135,0.012705039701642714,0
390,0.015600000000000058,5.000707572102282,0.014274489278030808,0.004786535448755569,0
391,0.0156400000000001,5.000378781950543,0.019863916466630674,-0.0008304686245500653,0
392,0.015679999999999916,5.000378781950543,0.024466974178816228,-0.00546113167666544,0
393,0.015719999999999956,4.99972120164681,0.028083662398618273,-0.009105453546115017,0
394,0.015759999999999996,5.000049991798719,0.030713981113518377,-0.011763434074551068,0
395,0.015800000000000036,4.999392411494816,0.03268672015498804,-0.013763862947294005,0
396,0.015840000000000076,5.000378781950543,0.03268672015498804,-0.013791580649832928,0
397,0.015879999999999894,4.999063621342738,0.03334429983648583,-0.014476905758344111,0
398,0.015919999999999934,5.000378781950543,0.03268672015498804,-0.013847099081224687,0
399,0.015959999999999974,5.000049991798719,0.03202914047399413,-0.013217319834547516,0
400,0.016000000000000014,4.99972120164681,0.030713981113518377,-0.011929988190584231,0
401,0.016040000000000054,4.99972120164681,0.031042770953448276,-0.012286632881164843,0
402,0.016080000000000094,5.000049991798719,0.030385191273714543,-0.011656935037848917,0
403,0.016119999999999912,4.99972120164681,0.030056401434036775,-0.011356053871672354,0
404,0.016159999999999952,4.99972120164681,0.030713981113518377,-0.012041568912743562,0
405,0.016199999999999992,5.000049991798719,0.030713981113518377,-0.012069530813116411,0
406,0.016240000000000032,5.000378781950543,0.030056401434036775,-0.011439939423176821,0
407,0.016280000000000072,4.999392411494816,0.031700350633686175,-0.013111903151615605,0
408,0.016320000000000112,4.99972120164681,0.033015509995673945,-0.014455103131411896,0
409,0.01635999999999993,5.000049991798719,0.03400187951848738,-0.015469539210519492,0
410,0.01639999999999997,5.000049991798719,0.034988249042434,-0.016484001078408417,0
411,0.01644000000000001,5.000049991798719,0.0353170388840013,-0.016840908900425847,0
412,0.01648000000000005,5.000049991798719,0.037289777936047624,-0.0188417914179883,0
413,0.01652000000000009,5.000049991798719,0.037289777936047624,-0.01886996021682829,0
414,0.016559999999999908,4.999392411494816,0.03827614746376892,-0.01988452372467222,0
415,0.016599999999999948,5.000707572102282,0.04123525605372079,-0.02287185132369024,0
416,0.016639999999999988,5.000049991798719,0.04222162558596615,-0.023886464741309506,0
417,0.016680000000000028,5.000049991798719,0.04452315449893275,-0.026216262263026573,0
418,0.016720000000000068,5.000049991798719,0.045509524034943585,-0.02723092497793908,0
419,0.016760000000000108,5.000049991798719,0.046495893572083224,-0.028245612110613355,0
420,0.016799999999999926,5.000378781950543,0.04748226311035131,-0.029260323507239228,0
421,0.016839999999999966,4.99972120164681,0.04912621234330475,-0.030932638707273506,0
422,0.016880000000000006,4.99972120164681,0.05142774127470057,-0.03326255756008411,0
423,0.016920000000000046,5.000378781950543,0.05340048036363608,-0.03526371037009156,0
424,0.016960000000000086,4.99972120164681,0.05504442960785576,-0.03693609698007717,0
425,0.016999999999999904,5.000049991798719,0.05635958900548195,-0.03827971723291501,0
426,0.017039999999999944,5.000049991798719,0.059647487508292976,-0.04159609992485139,0
427,0.017079999999999984,4.99972120164681,0.06162022661597208,-0.043597346399755016,0
428,0.017120000000000024,5.000049991798719,0.06457933528590981,-0.04658498545892075,0
429,0.017160000000000064,4.99972120164681,0.06852481352819326,-0.05055901695606013,0
430,0.017200000000000104,5.000049991798719,0.07279908164422239,-0.05486186103591909,0
431,0.017239999999999922,5.000378781950543,0.07641577006649763,-0.05850714797406697,0
432,0.017279999999999962,5.000378781950543,0.0813476179392533,-0.06346761675753096,0
433,0.017320000000000002,5.000049991798719,0.08562188611819377,-0.06777052808453377,0
434,0.017360000000000042,4.99972120164681,0.09154010363123893,-0.07371741082524029,0
435,0.017400000000000082,4.99972120164681,0.09811590091487153,-0.08032189525810633,0
436,0.0174399999999999,5.000378781950543,0.10403411851227598,-0.08626882176801873,0
437,0.01747999999999994,4.99972120164681,0.11060991588943969,-0.09287334966239814,0
438,0.01751999999999998,5.000378781950543,0.1158705538265029,-0.09816273956255007,0
439,0.01756000000000002,4.99972120164681,0.12211756141747197,-0.10443852040337971,0
440,0.01760000000000006,4.99972120164681,0.12672061967062423,-0.10907037303379793,0
441,0.0176400000000001,5.000378781950543,0.13132367794768446,-0.11370224665589948,0
442,0.017679999999999918,5.000049991798719,0.13494036661069325,-0.11734777147183269,0
443,0.017719999999999958,5.000707572102282,0.1369131058876297,-0.11934936754942359,0
444,0.017759999999999998,5.000378781950543,0.1382282654080184,-0.12069340435778433,0
445,0.017800000000000038,5.000378781950543,0.13789947552773896,-0.12039351209212365,0
446,0.017840000000000078,5.000049991798719,0.1355979463691857,-0.1181209007139079,0
447,0.017879999999999896,4.99972120164681,0.13395399697386687,-0.11650588910346171,0
448,0.017919999999999936,5.000378781950543,0.1286933589292962,-0.11127420868686128,0
449,0.017959999999999976,5.000378781950543,0.12376151079085085,-0.10637133785779376,0
450,0.018000000000000016,5.000049991798719,0.11619934369861068,-0.09883816759439787,0
451,0.018040000000000056,5.000378781950543,0.10863717667113368,-0.09130501675304048,0
452,0.018080000000000096,4.99972120164681,0.10239016917566456,-0.08508704463852657,0
453,0.018119999999999914,5.000049991798719,0.09482800226688862,-0.07755393214285443,0
454,0.018159999999999954,5.000707572102282,0.08792341514628582,-0.07067841830457124,0
455,0.018199999999999994,5.000378781950543,0.08200519765772811,-0.06478929280437185,0
456,0.018240000000000034,5.000049991798719,0.07444303092521187,-0.05725623660283267,0
457,0.018280000000000074,5.000378781950543,0.06753844396594139,-0.050380778553496576,0
458,0.018320000000000114,5.000049991798719,0.06392175558060653,-0.04679323729315211,0
459,0.018359999999999932,5.000378781950543,0.05997627735926084,-0.042876924247712854,0
460,0.018399999999999972,5.000378781950543,0.05635958900548195,-0.03928941895637935,0
461,0.018440000000000012,5.000378781950543,0.05274290066682373,-0.03570193140209268,0
462,0.018480000000000052,5.000049991798719,0.04978379203736312,-0.03277204111408272,0
463,0.018520000000000092,5.000049991798719,0.04715347326413659,-0.03017095807430607,0
464,0.01855999999999991,5.000378781950543,0.04320799511934159,-0.02625473288964897,0
465,0.01859999999999995,5.000049991798719,0.040577676366185214,-0.023653684157777338,0
466,0.01863999999999999,5.001036362253937,0.03564582872569445,-0.01875112343394845,0
467,0.01868000000000003,4.99972120164681,0.034988249042434,-0.018122847396730125,0
468,0.01872000000000007,5.000707572102282,0.025453343691792682,-0.008617262255288631,0
469,0.01876000000000011,4.999063621342738,0.023809394504130166,-0.00700264967353692,0
470,0.018799999999999928,5.000049991798719,0.018877546960101396,-0.002100154965460517,0
471,0.018839999999999968,5.001693942556992,0.015918438447348998,0.0008295846481886429,0
472,0.018880000000000008,4.999392411494816,0.012630540111881347,0.004088098188512711,0
473,0.018920000000000048,5.001693942556992,0.011315380781244458,0.00537385699529451,0
474,0.018960000000000088,4.999063621342738,0.003753214669504526,0.012906607022013447,0
475,0.018999999999999906,5.000707572102282,0.00506837398845672,0.011562016224635277,0
476,0.019039999999999946,4.999392411494816,-0.0015074225859438989,0.018108366095179733,0
477,0.019079999999999986,5.003666683464122,0.001780475694892425,0.014791006053244161,0
478,0.019120000000000026,4.999063621342738,-0.0015074225859438989,0.018049427684136088,0
479,0.019160000000000066,4.99972120164681,0.001780475694892425,0.014732038033117484,0
480,0.019200000000000106,4.998734831190575,-0.00019226327513760522,0.016675271081542403,0
481,0.019239999999999924,4.999392411494816,0.007369902801517392,0.009083584700880797,0
482,0.019279999999999964,5.001693942556992,0.008027482463535476,0.008396470521680605,0
483,0.019320000000000004,5.000049991798719,0.008356272294735026,0.008038132129552497,0
484,0.019360000000000044,4.99972120164681,0.010986590948902406,0.005378251040340745,0
485,0.019400000000000084,5.000707572102282,0.014603279111640999,0.0017319867382727047,0
486,0.019439999999999902,4.99972120164681,0.01756238761983417,-0.001256711443505698,0
487,0.019479999999999942,5.000049991798719,0.019863916466630674,-0.00358784332791693,0
488,0.019519999999999982,4.99972120164681,0.024138184341410046,-0.007891727433918812,0
489,0.019560000000000022,5.000378781950543,0.028741242076586612,-0.012524414423310103,0
490,0.019600000000000062,5.000707572102282,0.030385191273714543,-0.014198005726837042,0
491,0.019640000000000102,4.99972120164681,0.03400187951848738,-0.017844348759194377,0
492,0.01967999999999992,5.000707572102282,0.0353170388840013,-0.019189175422290282,0
493,0.01971999999999996,5.000378781950543,0.037618567778495635,-0.02152038395298833,0
494,0.01976,4.99972120164681,0.039920096679152195,-0.023851604656908457,0
495,0.01980000000000004,5.000049991798719,0.04189283574175878,-0.025854047518091956,0
496,0.01984000000000008,5.000378781950543,0.04452315449893275,-0.028514081897226637,0
497,0.019879999999999898,5.000378781950543,0.04419436465384674,-0.028215019325374076,0
498,0.019919999999999938,5.000378781950543,0.045180734189481195,-0.029231127613223683,0
499,0.019959999999999978,5.000378781950543,0.04616710372624461,-0.0302472472087146,0
500,0.020000000000000018,5.000049991798719,0.04616710372624461,-0.0302770084013083,0
501,0.020040000000000058,4.99972120164681,0.046495893572083224,-0.0306355704007854,0
502,0.020080000000000098,4.99972120164681,0.04781105295669137,-0.031980512727081724,0
503,0.020119999999999916,5.000049991798719,0.046495893572083224,-0.030695146899044286,0
504,0.020159999999999956,5.000049991798719,0.04879742249646346,-0.033026479821540104,0
505,0.020199999999999996,5.000049991798719,0.04748226311035131,-0.03174113470158196,0
506,0.020240000000000036,5.000049991798719,0.048139842803156765,-0.032428538754906276,0
507,0.020280000000000076,4.999392411494816,0.04781105295669137,-0.032129583189485444,0
508,0.020319999999999894,5.000049991798719,0.04682468341804723,-0.03117305767840857,0
509,0.020359999999999934,5.000378781950543,0.04748226311035131,-0.03186049097063738,0
510,0.020399999999999974,5.000378781950543,0.04616710372624461,-0.03057519458448704,0
511,0.020440000000000014,4.99972120164681,0.04616710372624461,-0.030605066805990188,0
512,0.020480000000000054,5.000049991798719,0.04419436465384674,-0.028662209004000155,0
513,0.020520000000000094,4.999063621342738,0.043865574808886185,-0.028363309303554393,0
514,0.02055999999999991,5.000707572102282,0.04222162558596615,-0.02674925892430445,0
515,0.02059999999999995,4.99972120164681,0.04222162558596615,-0.026779166292025848,0
516,0.02063999999999999,4.99972120164681,0.04123525605372079,-0.02582271247629854,0
517,0.02068000000000003,4.99972120164681,0.04123525605372079,-0.02585263636620954,0
518,0.02072000000000007,5.000707572102282,0.0392625169926218,-0.023909829192863424,0
519,0.02076000000000011,4.99972120164681,0.03827614746376892,-0.022953399373908452,0
520,0.02079999999999993,5.000378781950543,0.037289777936047624,-0.021996977202389117,0
521,0.02083999999999997,5.000378781950543,0.03663219825152894,-0.021369352344392984,0
522,0.02088000000000001,5.000049991798719,0.03597461856751347,-0.020741734781096366,0
523,0.02092000000000005,4.99972120164681,0.0353170388840013,-0.02011412433623591,0
524,0.02096000000000009,5.000049991798719,0.03268672015498804,-0.01751378178740628,0
525,0.020999999999999908,5.000378781950543,0.030713981113518377,-0.015571025691115428,0
526,0.021039999999999948,5.000049991798719,0.028083662398618273,-0.012970696509718445,0
527,0.021079999999999988,4.99972120164681,0.025124553854007567,-0.010041583910131872,0
528,0.021120000000000028,5.000378781950543,0.021507865646709548,-0.006454897882444938,0
529,0.021160000000000068,5.000378781950543,0.01756238761983417,-0.002539428092704528,0
530,0.021200000000000108,5.000707572102282,0.013616909611190692,0.0013760357984705027,0
531,0.021239999999999926,5.000707572102282,0.009671431620803153,0.005291493968372016,0
532,0.021279999999999966,4.999063621342738,0.006054743479005864,0.008878156764105437,0
533,0.021320000000000006,5.000378781950543,0.001780475694892425,0.013122393854138985,0
534,0.021360000000000046,4.99972120164681,-0.0018362124133269458,0.01670904609794456,0
535,0.021400000000000086,4.99972120164681,-0.0047953208540382625,0.019638113681708806,0
536,0.021439999999999904,5.000378781950543,-0.006768059808773,0.021580806964880538,0
537,0.021479999999999944,5.000049991798719,-0.008412008934208556,0.02319470578216941,0
538,0.021519999999999984,5.000707572102282,-0.010713537704454032,0.02546617978582981,0
539,0.021560000000000024,5.000378781950543,-0.0116999071754995,0.02642249021010834,0
540,0.021600000000000064,5.000707572102282,-0.010384747880516562,0.02507726776654278,0
541,0.021640000000000104,5.000049991798719,-0.010384747880516562,0.025047200694618577,0
542,0.02167999999999992,5.000049991798719,-0.010055958056451306,0.024688340053867892,0
543,0.02171999999999996,4.99972120164681,-0.0090695885834889,0.02367189619814381,0
544,0.02176,5.000049991798719,-0.00874079875891258,0.023313028603517437,0
545,0.02180000000000004,5.000049991798719,-0.007754429284417372,0.02229657815057271,0
546,0.02184000000000008,4.99972120164681,-0.007425639459330238,0.021937704317624825,0
547,0.0218799999999999,5.000378781950543,-0.006439269983302923,0.020921247983411204,0
548,0.02191999999999994,5.000378781950543,-0.0047953208540382625,0.019247209324815988,0
549,0.02195999999999998,5.000049991798719,-0.00348016154833046,0.01790195799790851,0
550,0.02200000000000002,5.000049991798719,-0.0018362124133269458,0.016227914529203233,0
551,0.02204000000000006,4.99972120164681,-0.0018362124133269458,0.016197818062456674,0
552,0.0220800000000001,5.000378781950543,-0.0005210531030302584,0.01485256033191417,0
553,0.022119999999999918,5.000378781950543,0.0014516858662357995,0.01284972116853509,0
554,0.022159999999999958,5.000378781950543,0.0030956350107915753,0.011175670235715696,0
555,0.022199999999999998,5.000049991798719,0.003753214669504526,0.01048798737438781,0
556,0.022240000000000038,5.000049991798719,0.005725953648695714,0.008485143958110578,0
557,0.022280000000000078,4.99972120164681,0.006054743479005864,0.008126248636202503,0
558,0.022319999999999895,5.000049991798719,0.0076986926324629085,0.006452193116672139,0
559,0.022359999999999935,5.000707572102282,0.009671431620803153,0.004449347067894974,0
560,0.022399999999999975,5.000049991798719,0.01065780111668721,0.0034328699973957683,0
561,0.022440000000000015,5.000378781950543,0.011315380781244458,0.0027451824243022727,0
562,0.022480000000000055,4.99972120164681,0.011644170613713423,0.0023862845297030547,0
563,0.022520000000000095,5.000707572102282,0.01295932994485767,0.0010410171632298237,0
564,0.022559999999999913,5.000378781950543,0.013945699444547363,2.453983547404462e-05,0
565,0.022599999999999953,5.000049991798719,0.014274489278030808,-0.0003343574382864145,0
566,0.022639999999999993,5.000049991798719,0.015260858779241576,-0.0013508338113962653,0
567,0.022680000000000033,5.000707572102282,0.014932068945377922,-0.0010521501004040236,0
568,0.022720000000000073,5.000707572102282,0.015260858779241576,-0.001411045127402595,0
569,0.022760000000000113,5.000378781950543,0.016247228281592724,-0.0024275187123861605,0
570,0.02279999999999993,5.000378781950543,0.016904807950460177,-0.0031152011725621535,0
571,0.02283999999999997,5.000378781950543,0.016576018115963126,-0.002816512657174884,0
572,0.02288000000000001,5.000049991798719,0.01756238761983417,-0.003832981827030374,0
573,0.02292000000000005,5.000707572102282,0.01756238761983417,-0.0038630796589130337,0
574,0.02296000000000009,5.000378781950543,0.01821996728971463,-0.004550755145549892,0
575,0.02299999999999991,5.000049991798719,0.01789117745471111,-0.004252058931105834,0
576,0.02303999999999995,5.000378781950543,0.017233597785083862,-0.0036245705047260775,0
577,0.02307999999999999,4.99972120164681,0.01821996728971463,-0.004641028694134831,0
578,0.02312000000000003,5.000707572102282,0.01789117745471111,-0.004342324804241644,0
579,0.02316000000000007,5.000049991798719,0.018548757124844717,-0.00502998749858103,0
580,0.02320000000000011,5.000378781950543,0.019863916466630674,-0.00637522676239443,0
581,0.023239999999999927,4.999392411494816,0.01789117745471111,-0.004432564389015209,0
582,0.023279999999999967,5.000049991798719,0.018877546960101396,-0.005449007068116889,0
583,0.023320000000000007,5.000378781950543,0.01953512663099438,-0.0061366562665192866,0
584,0.023360000000000047,5.000049991798719,0.018877546960101396,-0.005509142295531417,0
585,0.023400000000000087,4.99972120164681,0.02117907581044083,-0.007840732836741943,0
586,0.023439999999999905,5.000378781950543,0.018877546960101396,-0.0055692614867843444,0
587,0.023479999999999945,5.000378781950543,0.018548757124844717,-0.005270524779941426,0
588,0.023519999999999985,5.000049991798719,0.018877546960101396,-0.005629363190143212,0
589,0.023560000000000025,5.000378781950543,0.01821996728971463,-0.005001827359712479,0
590,0.023600000000000065,5.000049991798719,0.019206336795484613,-0.006018235788911048,0
591,0.023640000000000105,5.000378781950543,0.018548757124844717,-0.005390689943617875,0
592,0.023679999999999923,4.999392411494816,0.018548757124844717,-0.005420718489314132,0
593,0.023719999999999963,5.000707572102282,0.019206336795484613,-0.006108321244418964,0
594,0.023760000000000003,5.000378781950543,0.018877546960101396,-0.005809548850678133,0
595,0.023800000000000043,4.99972120164681,0.01756238761983417,-0.004524401127631045,0
596,0.023840000000000083,5.000378781950543,0.01789117745471111,-0.004883196573699629,0
597,0.0238799999999999,5.000049991798719,0.01756238761983417,-0.004584406162374946,0
598,0.02391999999999994,4.99972120164681,0.018877546960101396,-0.005929558556941401,0
599,0.02395999999999998,5.000049991798719,0.01756238761983417,-0.004644385720105896,0
600,0.02400000000000002,4.99972120164681,0.01789117745471111,-0.00500315532593364,0
601,0.02404000000000006,4.999392411494816,0.018548757124844717,-0.005690707852926753,0
602,0.0240800000000001,5.000707572102282,0.019206336795484613,-0.006378253284729459,0
603,0.02411999999999992,4.99972120164681,0.018548757124844717,-0.005750632097957176,0
604,0.02415999999999996,5.000378781950543,0.01953512663099438,-0.006766952629089572,0
605,0.0242,5.000707572102282,0.018548757124844717,-0.005810526507458863,0
606,0.02424000000000004,4.99972120164681,0.019206336795484613,-0.006498041740587712,0
607,0.02428000000000008,5.000378781950543,0.019206336795484613,-0.006527969299495052,0
608,0.024319999999999897,5.000049991798719,0.02019270630239349,-0.0075442581801945605,0
609,0.024359999999999937,5.001036362253937,0.02019270630239349,-0.007574169187351883,0
610,0.024399999999999977,5.000049991798719,0.019863916466630674,-0.007275281810616836,0
611,0.024440000000000017,5.000049991798719,0.019206336795484613,-0.006647595868895045,0
612,0.024480000000000057,5.000378781950543,0.019206336795484613,-0.006677480687266112,0
613,0.024520000000000097,5.000707572102282,0.01953512663099438,-0.00703614624867023,0
614,0.024559999999999915,5.000049991798719,0.019206336795484613,-0.006737222865182751,0
615,0.024599999999999955,4.99972120164681,0.019863916466630674,-0.007424659533113838,0
616,0.024639999999999995,5.000378781950543,0.019863916466630674,-0.0074545068933284594,0
617,0.024680000000000035,5.000378781950543,0.02085028597429857,-0.00847071394334146,0
618,0.024720000000000075,4.999392411494816,0.021507865646709548,-0.00915812115896489,0
619,0.024759999999999893,5.000378781950543,0.020521496138282788,-0.008201569013392777,0
620,0.024799999999999933,5.000707572102282,0.02085028597429857,-0.008560165850720168,0
621,0.024839999999999973,5.000707572102282,0.02117907581044083,-0.008918752145487667,0
622,0.024880000000000013,5.000378781950543,0.02117907581044083,-0.008948537880327064,0
623,0.024920000000000053,5.000378781950543,0.02216544531962629,-0.009964682219512489,0
624,0.024960000000000093,5.000378781950543,0.022494235156274286,-0.010323235800315288,0
625,0.02499999999999991,5.000378781950543,0.022823024993048696,-0.010681778114443439,0
626,0.02503999999999995,5.000378781950543,0.021836655483104705,-0.009725149634148032,0
627,0.02507999999999999,5.000049991798719,0.022494235156274286,-0.010412458708410696,0
628,0.02512000000000003,5.000378781950543,0.02315181482994949,-0.01109975597382889,0
629,0.02516000000000007,5.000378781950543,0.02315181482994949,-0.01112946157548494,0
630,0.02520000000000011,5.000049991798719,0.021836655483104705,-0.00984399565953217,0
631,0.02523999999999993,5.000378781950543,0.02216544531962629,-0.010202466575566338,0
632,0.02527999999999997,5.000378781950543,0.02216544531962629,-0.010232135123147806,0
633,0.02532000000000001,5.000049991798719,0.022823024993048696,-0.010919370631734569,0
634,0.02536000000000005,5.000378781950543,0.022823024993048696,-0.01094901357406353,0
635,0.02540000000000009,5.000378781950543,0.021836655483104705,-0.009992273933264472,0
636,0.025439999999999907,4.99972120164681,0.021507865646709548,-0.00969310071255321,0
637,0.025479999999999947,5.000049991798719,0.02117907581044083,-0.009393914058303962,0
638,0.025519999999999987,4.99972120164681,0.019863916466630674,-0.008108344282721008,0
639,0.025560000000000027,5.000049991798719,0.01953512663099438,-0.007809130221469403,0
640,0.025600000000000067,5.000378781950543,0.02019270630239349,-0.00849627169344001,0
641,0.025640000000000107,5.000378781950543,0.019206336795484613,-0.007539449833400377,0
642,0.025679999999999925,5.000049991798719,0.019206336795484613,-0.007568983146761904,0
643,0.025719999999999965,5.000707572102282,0.018877546960101396,-0.007269712111512644,0
644,0.025760000000000005,5.000049991798719,0.018548757124844717,-0.006970426383530098,0
645,0.025800000000000045,5.000378781950543,0.019206336795484613,-0.007657495289041633,0
646,0.025840000000000085,4.99972120164681,0.018548757124844717,-0.007029389801419799,0
647,0.025879999999999903,5.000378781950543,0.019206336795484613,-0.007716428423866649,0
648,0.025919999999999943,5.000049991798719,0.019206336795484613,-0.007745871965200548,0
649,0.025959999999999983,5.000378781950543,0.018548757124844717,-0.007117720246257116,0
650,0.026000000000000023,5.000049991798719,0.019206336795484613,-0.007804712099891243,0
651,0.026040000000000063,5.000378781950543,0.018548757124844717,-0.007176528664580149,0
652,0.026080000000000103,4.99972120164681,0.018877546960101396,-0.007534698608640578,0
653,0.02611999999999992,5.000378781950543,0.019206336795484613,-0.007892852247548486,0
654,0.02615999999999996,5.000378781950543,0.01821996728971463,-0.006935830061377728,0
655,0.0262,5.000378781950543,0.018548757124844717,-0.0072939505536447815,0
656,0.02624000000000004,5.000378781950543,0.018877546960101396,-0.007652054205151002,0
657,0.02628000000000008,4.99972120164681,0.01821996728971463,-0.007023771331814813,0
658,0.0263199999999999,5.000378781950543,0.02019270630239349,-0.009025789944149343,0
659,0.02635999999999994,5.000378781950543,0.019863916466630674,-0.008726262332568978,0
660,0.02639999999999998,5.000049991798719,0.02085028597429857,-0.009741876510987431,0
661,0.02644000000000002,4.99972120164681,0.01953512663099438,-0.008455944107164892,0
662,0.02648000000000006,5.000378781950543,0.019863916466630674,-0.00881394297330058,0
663,0.0265200000000001,5.000378781950543,0.019863916466630674,-0.008843133917230067,0
664,0.026559999999999917,4.99972120164681,0.021836655483104705,-0.010845045613603669,0
665,0.026599999999999957,5.000378781950543,0.02117907581044083,-0.010216620179479108,0
666,0.026639999999999997,5.000049991798719,0.022494235156274286,-0.01156091514529296,0
667,0.026680000000000037,5.000378781950543,0.021836655483104705,-0.010932452296479912,0
668,0.026720000000000077,5.000707572102282,0.022494235156274286,-0.01161912982145294,0
669,0.026759999999999895,5.000378781950543,0.023480604666976643,-0.012634578034614173,0
670,0.026799999999999935,5.000378781950543,0.023480604666976643,-0.012663637411076782,0
671,0.026839999999999975,5.000378781950543,0.024138184341410046,-0.013350256959466613,0
672,0.026880000000000015,5.000378781950543,0.023809394504130166,-0.01305048731727088,0
673,0.026920000000000055,5.000049991798719,0.022823024993048696,-0.012093118146180996,0
674,0.026960000000000095,5.000378781950543,0.025124553854007567,-0.014423627315966525,0
675,0.026999999999999913,5.000049991798719,0.025453343691792682,-0.014781377255490917,0
676,0.027039999999999953,5.000707572102282,0.02315181482994949,-0.012508788112529149,0
677,0.027079999999999993,5.000049991798719,0.025453343691792682,-0.014839236134779468,0
678,0.027120000000000033,5.001365152405508,0.025782133529704057,-0.015196924399163345,0
679,0.027160000000000073,4.998077250885994,0.022823024993048696,-0.012266693379743648,0
680,0.027200000000000113,4.999063621342738,0.025453343691792682,-0.014925868511344394,0
681,0.02723999999999993,5.001036362253937,0.02216544531962629,-0.011666805312676016,0
682,0.02727999999999997,4.995775719817295,0.02117907581044083,-0.010709249542814187,0
683,0.02732000000000001,5.002351522859708,0.024466974178816228,-0.014025940041689465,0
684,0.02736000000000005,4.998734831190575,0.022494235156274286,-0.012081971366342571,0
685,0.02740000000000009,4.999392411494816,0.024138184341410046,-0.01375466894105778,0
686,0.02743999999999991,4.99972120164681,0.02315181482994949,-0.012797025687422685,0
687,0.02747999999999995,4.998406041038327,0.02216544531962629,-0.011839360129206946,0
688,0.02751999999999999,4.998734831190575,0.024795764016348754,-0.01449836029853129,0
689,0.02756000000000003,4.999392411494816,0.027097292882612076,-0.016828547984281777,0
690,0.02760000000000007,4.999392411494816,0.024138184341410046,-0.013898075436023555,0
691,0.02764000000000011,5.000049991798719,0.024138184341410046,-0.013926688429177865,0
692,0.027679999999999927,5.000049991798719,0.024466974178816228,-0.014284068086887269,0
693,0.027719999999999967,5.000707572102282,0.025124553854007567,-0.014970214236655684,0
694,0.027760000000000007,5.000378781950543,0.025124553854007567,-0.014998757192820136,0
695,0.027800000000000047,5.000049991798719,0.0264397132059056,-0.01634243580997411,0
696,0.027840000000000087,5.000378781950543,0.024466974178816228,-0.0143981921849289,0
697,0.027879999999999905,4.99972120164681,0.024138184341410046,-0.014097873714246492,0
698,0.027919999999999945,5.000378781950543,0.025453343691792682,-0.015441480224120585,0
699,0.027959999999999985,5.000378781950543,0.024795764016348754,-0.014812323329222558,0
700,0.028000000000000025,4.99972120164681,0.023809394504130166,-0.013854352047091763,0
701,0.028040000000000065,5.000378781950543,0.025453343691792682,-0.015526674743074115,0
702,0.028080000000000105,5.000378781950543,0.024795764016348754,-0.01489744368307691,0
703,0.028119999999999923,4.99972120164681,0.025782133529704057,-0.01591213674810731,0
704,0.028159999999999963,5.000049991798719,0.025124553854007567,-0.015282855389624473,0
705,0.028200000000000003,4.99972120164681,0.025124553854007567,-0.015311128301897594,0
706,0.028240000000000043,5.000378781950543,0.025453343691792682,-0.01566816547674895,0
707,0.028280000000000083,5.000049991798719,0.025124553854007567,-0.015367597230771598,0
708,0.0283199999999999,5.000049991798719,0.025453343691792682,-0.015724582745271155,0
709,0.02835999999999994,5.000049991798719,0.026110923367741706,-0.016410332013225268,0
710,0.02839999999999998,5.000049991798719,0.0264397132059056,-0.016767265189289733,0
711,0.02844000000000002,5.000049991798719,0.027097292882612076,-0.017452961780619943,0
712,0.02848000000000006,5.000378781950543,0.02676850304419573,-0.017152262264603077,0
713,0.0285200000000001,4.99972120164681,0.027097292882612076,-0.017509115664474037,0
714,0.02855999999999992,4.99972120164681,0.0264397132059056,-0.01687957261978556,0
715,0.02859999999999996,5.000707572102282,0.026110923367741706,-0.016578792315942142,0
716,0.02864,4.99972120164681,0.02676850304419573,-0.0172643542609912,0
717,0.02868000000000004,5.000049991798719,0.02676850304419573,-0.0172923090960678,0
718,0.02872000000000008,5.000378781950543,0.0264397132059056,-0.016991446491779836,0
719,0.028759999999999897,5.000049991798719,0.0264397132059056,-0.017019345957390544,0
720,0.028799999999999937,5.000049991798719,0.027097292882612076,-0.017704797164240255,0
721,0.028839999999999977,5.000049991798719,0.027097292882612076,-0.01773264059208309,0
722,0.028880000000000017,5.000378781950543,0.02676850304419573,-0.01743166591262128,0
723,0.028920000000000057,4.99972120164681,0.0264397132059056,-0.01713066279805659,0
724,0.028960000000000097,5.000378781950543,0.026110923367741706,-0.016829631082297354,0
725,0.028999999999999915,5.000378781950543,0.026110923367741706,-0.016857360437540693,0
726,0.029039999999999955,5.000378781950543,0.027097292882612076,-0.01787143037490568,0
727,0.029079999999999995,5.000378781950543,0.027097292882612076,-0.017899101699319363,0
728,0.029120000000000035,5.000049991798719,0.027097292882612076,-0.0179267437605771,0
729,0.029160000000000075,5.000378781950543,0.027426082721154613,-0.018283146232405623,0
730,0.029200000000000115,4.99972120164681,0.02676850304419573,-0.01765314959620635,0
731,0.029239999999999933,5.000378781950543,0.02676850304419573,-0.01768070288014817,0
732,0.029279999999999973,4.99972120164681,0.0264397132059056,-0.01737943640495582,0
733,0.029320000000000013,5.000378781950543,0.027097292882612076,-0.01806450936015698,0
734,0.029360000000000053,5.000378781950543,0.027097292882612076,-0.018091972390558743,0
735,0.029400000000000093,4.99972120164681,0.0264397132059056,-0.017461825332942445,0
736,0.02943999999999991,4.99972120164681,0.027097292882612076,-0.018146807054482017,0
737,0.02947999999999995,5.000049991798719,0.02676850304419573,-0.017845388523971436,0
738,0.02951999999999999,5.000049991798719,0.02676850304419573,-0.01787272893255678,0
739,0.02956000000000003,4.99972120164681,0.027097292882612076,-0.018228828118124138,0
740,0.02960000000000007,5.000049991798719,0.027097292882612076,-0.0182561062420081,0
741,0.02964000000000011,5.000707572102282,0.027097292882612076,-0.01828335298107543,0
742,0.02967999999999993,4.99972120164681,0.02676850304419573,-0.01798177833564532,0
743,0.02971999999999997,5.000049991798719,0.027097292882612076,-0.01833775165998943,0
744,0.02976000000000001,4.99972120164681,0.027097292882612076,-0.01836490327817042,0
745,0.02980000000000005,4.99972120164681,0.027426082721154613,-0.018720812706749905,0
746,0.02984000000000009,5.000049991798719,0.02676850304419573,-0.01809032043157969,0
747,0.029879999999999907,4.99972120164681,0.027426082721154613,-0.01877495516226975,0
748,0.029919999999999947,5.000049991798719,0.027754872559823354,-0.01913076754709999,0
749,0.029959999999999987,5.000707572102282,0.027426082721154613,-0.018828967587809914,0
750,0.030000000000000027,5.000378781950543,0.028412452237539368,-0.019842294157878297,0
751,0.030040000000000067,5.000049991798719,0.027754872559823354,-0.01921163854954163,0
752,0.030080000000000107,4.99972120164681,0.028412452237539368,-0.019896109154028375,0
753,0.030119999999999925,4.99972120164681,0.028083662398618273,-0.019594176941271982,0
754,0.030159999999999965,5.000049991798719,0.028412452237539368,-0.01994979094806317,0
755,0.030200000000000005,5.000049991798719,0.029070031915759978,-0.020634161178481544,0
756,0.030240000000000045,5.000378781950543,0.027754872559823354,-0.019345758602005384,0
757,0.030280000000000085,4.99972120164681,0.027754872559823354,-0.019372481451978313,0
758,0.030319999999999903,5.000049991798719,0.027426082721154613,-0.01907038037736141,0
759,0.030359999999999943,5.000049991798719,0.028412452237539368,-0.020083404415761966,0
760,0.030399999999999983,4.99972120164681,0.029070031915759978,-0.020767604218168007,0
761,0.030440000000000023,5.000049991798719,0.027426082721154613,-0.019150240594445932,0
762,0.030480000000000063,5.000378781950543,0.027754872559823354,-0.019505581295548555,0
763,0.030520000000000103,5.001036362253937,0.027426082721154613,-0.01920330745604345,0
764,0.03055999999999992,5.000378781950543,0.027426082721154613,-0.01922978843744433,0
765,0.03059999999999996,5.000049991798719,0.027754872559823354,-0.019585024085588956,0
766,0.03064,5.000049991798719,0.028083662398618273,-0.019940224408104716,0
767,0.03068000000000004,5.000378781950543,0.0264397132059056,-0.018322650219861895,0
768,0.03072000000000008,4.99972120164681,0.028741242076586612,-0.02065051846260185,0
769,0.0307599999999999,4.99972120164681,0.027426082721154613,-0.019361662693995946,0
770,0.03079999999999994,5.000378781950543,0.027426082721154613,-0.01938793034310715,0
771,0.03083999999999998,5.000049991798719,0.027754872559823354,-0.01974295174103198,0
772,0.03088000000000002,5.000049991798719,0.027426082721154613,-0.01944035721996774,0
773,0.03092000000000006,5.000049991798719,0.026110923367741706,-0.018151356791056898,0
774,0.0309600000000001,5.000378781950543,0.0264397132059056,-0.018506269009517132,0
775,0.030999999999999917,5.000049991798719,0.025782133529704057,-0.017874775018652353,0
776,0.031039999999999957,5.000378781950543,0.026110923367741706,-0.018229613696664735,0
777,0.031079999999999997,4.99972120164681,0.025124553854007567,-0.017269256027494143,0
778,0.031120000000000037,4.99972120164681,0.023809394504130166,-0.01598007137707514,0
779,0.031160000000000077,5.000049991798719,0.024466974178816228,-0.01666358845677763,0
780,0.031199999999999894,4.99972120164681,0.024466974178816228,-0.016689488418374337,0
781,0.031239999999999934,5.000378781950543,0.022823024993048696,-0.015071401602166998,0
782,0.031279999999999974,4.99972120164681,0.024795764016348754,-0.017069965254736783,0
783,0.031320000000000014,5.000049991798719,0.023809394504130166,-0.016109382483608197,0
784,0.031360000000000054,5.000049991798719,0.024795764016348754,-0.017121500701214386,0
785,0.031400000000000095,4.99972120164681,0.024795764016348754,-0.017147211223745372,0
786,0.03143999999999991,5.000049991798719,0.026110923367741706,-0.018488042768028793,0
787,0.03147999999999995,5.000707572102282,0.0264397132059056,-0.01884246632303097,0
788,0.03151999999999999,5.000707572102282,0.025782133529704057,-0.018210481741577914,0
789,0.03156000000000003,4.99972120164681,0.025782133529704057,-0.018236038068575006,0
790,0.03160000000000007,5.000378781950543,0.027097292882612076,-0.01957671483544497,0
791,0.03164000000000011,5.000049991798719,0.0264397132059056,-0.018944613514761312,0
792,0.03167999999999993,5.000049991798719,0.0264397132059056,-0.01897005266832266,0
793,0.03171999999999997,4.99972120164681,0.0264397132059056,-0.018995452475283767,0
794,0.03176000000000001,4.99972120164681,0.027097292882612076,-0.019678392468597757,0
795,0.03180000000000005,4.99972120164681,0.027426082721154613,-0.020032502990028192,0
796,0.03184000000000009,5.000049991798719,0.027097292882612076,-0.01972899405767709,0
797,0.03187999999999991,5.000049991798719,0.0264397132059056,-0.019096655367879828,0
798,0.03191999999999995,5.000049991798719,0.027426082721154613,-0.02010822580856296,0
799,0.03195999999999999,5.000049991798719,0.027426082721154613,-0.02013338653072388,0
800,0.03200000000000003,5.000049991798719,0.027097292882612076,-0.019829717069667525,0
801,0.03204000000000007,4.99972120164681,0.02676850304419573,-0.019526007123059512,0
802,0.03208000000000011,5.000049991798719,0.0264397132059056,-0.019222256550296947,0
803,0.032119999999999926,5.000049991798719,0.027097292882612076,-0.01990483472604932,0
804,0.032159999999999966,5.000378781950543,0.027097292882612076,-0.01992979231881657,0
805,0.032200000000000006,5.000378781950543,0.027754872559823354,-0.020612288543125128,0
806,0.032240000000000046,5.000049991798719,0.0264397132059056,-0.019322004551650885,0
807,0.032280000000000086,4.99972120164681,0.027754872559823354,-0.020661997944783864,0
808,0.032319999999999904,5.000378781950543,0.0264397132059056,-0.019371631168689687,0
809,0.032359999999999944,5.000378781950543,0.027097292882612076,-0.020053961824077624,0
810,0.032399999999999984,5.000049991798719,0.027097292882612076,-0.020078671066281258,0
811,0.032440000000000024,4.99972120164681,0.02676850304419573,-0.019774548596671517,0
812,0.032480000000000064,5.000378781950543,0.02676850304419573,-0.01979917395558021,0
813,0.032520000000000104,5.000378781950543,0.02676850304419573,-0.01982375716851023,0
814,0.03255999999999992,4.999392411494816,0.027097292882612076,-0.020177087938219096,0
815,0.03259999999999996,5.000378781950543,0.027097292882612076,-0.02020158645263899,0
816,0.03264,5.000049991798719,0.026110923367741706,-0.019239672900506277,0
817,0.03268000000000004,5.000049991798719,0.02676850304419573,-0.019921665853633416,0
818,0.03272000000000008,4.999392411494816,0.025453343691792682,-0.018630876957885713,0
819,0.0327599999999999,4.99972120164681,0.025124553854007567,-0.018326414623215766,0
820,0.03279999999999994,5.000049991798719,0.026110923367741706,-0.01933706855343514,0
821,0.03283999999999998,5.000378781950543,0.024466974178816228,-0.017717360561709652,0
822,0.03288000000000002,4.99972120164681,0.025453343691792682,-0.018727927920381707,0
823,0.03292000000000006,5.000378781950543,0.0264397132059056,-0.01973845179690464,0
824,0.0329600000000001,5.000049991798719,0.024795764016348754,-0.018118613355130708,0
825,0.03299999999999992,4.99972120164681,0.026110923367741706,-0.019457839708779425,0
826,0.03303999999999996,4.99972120164681,0.025124553854007567,-0.01849549332131699,0
827,0.03308,4.99972120164681,0.025782133529704057,-0.01917705211728909,0
828,0.03312000000000004,5.000049991798719,0.027097292882612076,-0.02051614645491131,0
829,0.03316000000000008,5.000049991798719,0.0264397132059056,-0.019882457498240722,0
830,0.033199999999999896,5.000378781950543,0.0264397132059056,-0.019906303824931512,0
831,0.033239999999999936,5.000378781950543,0.027754872559823354,-0.021245264983980043,0
832,0.033279999999999976,5.000378781950543,0.025782133529704057,-0.01929628310967017,0
833,0.033320000000000016,4.99972120164681,0.027426082721154613,-0.020963944680302687,0
834,0.033360000000000056,4.99972120164681,0.027097292882612076,-0.02065882231746554,0
835,0.033400000000000096,5.000378781950543,0.027754872559823354,-0.02134002444051522,0
836,0.033439999999999914,5.000378781950543,0.027426082721154613,-0.021034811891887807,0
837,0.033479999999999954,5.000049991798719,0.0264397132059056,-0.020071974385414977,0
838,0.033519999999999994,5.000049991798719,0.027097292882612076,-0.020753040664628068,0
839,0.033560000000000034,5.000049991798719,0.028412452237539368,-0.02209164109125341,0
840,0.033600000000000074,4.99972120164681,0.027097292882612076,-0.020799877153143652,0
841,0.033640000000000114,5.000378781950543,0.027097292882612076,-0.020823226791477502,0
842,0.03367999999999993,5.000049991798719,0.027426082721154613,-0.02117532036673743,0
843,0.03371999999999997,4.99972120164681,0.02676850304419573,-0.020540998402218725,0
844,0.03376000000000001,5.000378781950543,0.028412452237539368,-0.022208159161538288,0
845,0.03380000000000005,5.000049991798719,0.027426082721154613,-0.021244954942953517,0
846,0.03384000000000009,5.000049991798719,0.028083662398618273,-0.021925653528806523,0
847,0.03387999999999991,5.000049991798719,0.028083662398618273,-0.02194872592702922,0
848,0.03391999999999995,4.99972120164681,0.027754872559823354,-0.02164296185601462,0
849,0.03395999999999999,4.99972120164681,0.028412452237539368,-0.02232352055127481,0
850,0.03400000000000003,5.000378781950543,0.029070031915759978,-0.02300403237749326,0
851,0.03404000000000007,5.000049991798719,0.028412452237539368,-0.022369337858899167,0
852,0.03408000000000011,5.000707572102282,0.028741242076586612,-0.022720965750863492,0
853,0.03411999999999993,4.99972120164681,0.028741242076586612,-0.02274375657922149,0
854,0.03415999999999997,5.000707572102282,0.028412452237539368,-0.022437710226613602,0
855,0.03420000000000001,5.001036362253937,0.027426082721154613,-0.02147403673788168,0
856,0.03424000000000005,5.000049991798719,0.027097292882612076,-0.021167895351830883,0
857,0.03428000000000009,5.000378781950543,0.028083662398618273,-0.02217686562928812,0
858,0.034319999999999906,5.000378781950543,0.0264397132059056,-0.020555469391602698,0
859,0.034359999999999946,5.000378781950543,0.025782133529704057,-0.01992039474911965,0
860,0.034399999999999986,5.000049991798719,0.025782133529704057,-0.01994285174714412,0
861,0.034440000000000026,4.99972120164681,0.025453343691792682,-0.01963647075767915,0
862,0.034480000000000066,5.000049991798719,0.024795764016348754,-0.019001251667722343,0
863,0.034520000000000106,4.99972120164681,0.02315181482994949,-0.01737961469097407,0
864,0.034559999999999924,5.000049991798719,0.023809394504130166,-0.01805945808659875,0
865,0.034599999999999964,5.000049991798719,0.022494235156274286,-0.016766513860116586,0
866,0.034640000000000004,5.000378781950543,0.02216544531962629,-0.016459890433417834,0
867,0.034680000000000044,5.000378781950543,0.02117907581044083,-0.015495638511913629,0
868,0.034720000000000084,5.001036362253937,0.02117907581044083,-0.01551770716699558,0
869,0.0347599999999999,5.000378781950543,0.021507865646709548,-0.015868516615929407,0
870,0.03479999999999994,5.000378781950543,0.020521496138282788,-0.01490411756844871,0
871,0.03483999999999998,5.000378781950543,0.02117907581044083,-0.015583618441048361,0
872,0.03488000000000002,4.99972120164681,0.02117907581044083,-0.015605490272718464,0
873,0.03492000000000006,4.99972120164681,0.02085028597429857,-0.015298522791727559,0
874,0.0349600000000001,5.000378781950543,0.02085028597429857,-0.015320295563134238,0
875,0.03499999999999992,5.000378781950543,0.019863916466630674,-0.014355649136425244,0
876,0.03503999999999996,5.000049991798719,0.02019270630239349,-0.01470611225652043,0
877,0.03508,5.000378781950543,0.01953512663099438,-0.014070155967174258,0
878,0.03512000000000004,5.000378781950543,0.01756238761983417,-0.012118990330661994,0
879,0.03516000000000008,4.99972120164681,0.01756238761983417,-0.012140513593308238,0
880,0.0351999999999999,4.999063621342738,0.016247228281592724,-0.010846827301644948,0
881,0.03523999999999994,5.000707572102282,0.015918438447348998,-0.010539460194376703,0
882,0.03527999999999998,5.000049991798719,0.014274489278030808,-0.008916883329430018,0
883,0.03532000000000002,4.99972120164681,0.013945699444547363,-0.008609415275247563,0
884,0.03536000000000006,5.000049991798719,0.011315380781244458,-0.006000367764244835,0
885,0.0354000000000001,5.000707572102282,0.013616909611190692,-0.008323117018097828,0
886,0.035439999999999916,4.998734831190575,0.010986590948902406,-0.005713967950469403,0
887,0.035479999999999956,5.000707572102282,0.01295932994485767,-0.007707825611524714,0
888,0.035519999999999996,5.000378781950543,0.014603279111640999,-0.009372842414077376,0
889,0.035560000000000036,4.999392411494816,0.011315380781244458,-0.006105960590891959,0
890,0.035600000000000076,5.002022732708393,0.01328811977796078,-0.008099664867578541,0
891,0.035639999999999894,4.99972120164681,0.011315380781244458,-0.006147839825455208,0
892,0.035679999999999934,5.000707572102282,0.011972960446309217,-0.006826282022146933,0
893,0.035719999999999974,4.99972120164681,0.012630540111881347,-0.007504672699340295,0
894,0.035760000000000014,4.999392411494816,0.014274489278030808,-0.009169381260616009,0
895,0.035800000000000054,4.999392411494816,0.011644170613713423,-0.006559770278992513,0
896,0.035840000000000094,5.002351522859708,0.013616909611190692,-0.008553165151347176,0
897,0.03587999999999991,4.998734831190575,0.014932068945377922,-0.009888928457765785,0
898,0.03591999999999995,4.99972120164681,0.014603279111640999,-0.009580690599340694,0
899,0.03595999999999999,5.000378781950543,0.014932068945377922,-0.00992998031775371,0
900,0.03600000000000003,5.000378781950543,0.015589648613231935,-0.010608007686490593,0
901,0.03604000000000007,5.000049991798719,0.014274489278030808,-0.009313243775781722,0
902,0.03608000000000011,5.000378781950543,0.013616909611190692,-0.008676007165007278,0
903,0.03611999999999993,4.99972120164681,0.013616909611190692,-0.008696297761173184,0
904,0.03615999999999997,5.000049991798719,0.013945699444547363,-0.009045325639886918,0
905,0.03620000000000001,5.000707572102282,0.012301750279031881,-0.0074215618785760055,0
906,0.03624000000000005,5.000049991798719,0.01328811977796078,-0.00842806405078008,0
907,0.03628000000000009,5.000049991798719,0.013945699444547363,-0.009105723570503644,0
908,0.03631999999999991,4.99972120164681,0.01328811977796078,-0.008468170848276455,0
909,0.03635999999999995,4.99972120164681,0.01328811977796078,-0.00848814479578957,0
910,0.03639999999999999,5.000049991798719,0.01328811977796078,-0.008508065658959724,0
911,0.03644000000000003,5.000707572102282,0.01295932994485767,-0.008199143517760427,0
912,0.03648000000000007,4.99972120164681,0.014274489278030808,-0.009534117285222247,0
913,0.03652000000000011,5.000049991798719,0.01328811977796078,-0.008567508876052808,0
914,0.036559999999999926,5.000707572102282,0.015589648613231935,-0.010888745373640617,0
915,0.036599999999999966,5.000707572102282,0.013945699444547363,-0.009264450354071335,0
916,0.036640000000000006,5.000378781950543,0.013945699444547363,-0.009284050905947486,0
917,0.036680000000000046,5.000049991798719,0.015918438447348998,-0.011276336779929265,0
918,0.036720000000000086,5.000378781950543,0.01756238761983417,-0.012939779060023833,0
919,0.036759999999999904,5.000378781950543,0.018548757124844717,-0.01394558782678162,0
920,0.036799999999999944,5.000049991798719,0.018877546960101396,-0.014293762996216522,0
921,0.036839999999999984,5.000378781950543,0.01821996728971463,-0.013655514651317879,0
922,0.036880000000000024,4.99972120164681,0.022494235156274286,-0.017949059754141426,0
923,0.036920000000000064,5.000378781950543,0.02216544531962629,-0.017639492984587113,0
924,0.036960000000000104,5.000049991798719,0.02315181482994949,-0.01864503131347714,0
925,0.03699999999999992,4.99972120164681,0.024466974178816228,-0.01997930515361772,0
926,0.03703999999999996,4.99972120164681,0.025453343691792682,-0.020984734752400556,0
927,0.03708,5.000049991798719,0.025782133529704057,-0.02133253019306925,0
928,0.03712000000000004,5.000049991798719,0.0264397132059056,-0.022009060911991438,0
929,0.03716000000000008,5.000378781950543,0.026110923367741706,-0.021699167480119026,0
930,0.0371999999999999,5.000378781950543,0.027426082721154613,-0.023033168527598083,0
931,0.03723999999999994,4.99972120164681,0.027754872559823354,-0.02338074527290889,0
932,0.03727999999999998,5.000378781950543,0.027426082721154613,-0.023070687478858022,0
933,0.03732000000000002,4.99972120164681,0.027754872559823354,-0.02341815442612004,0
934,0.03736000000000006,5.000049991798719,0.026110923367741706,-0.021792827333207483,0
935,0.0374000000000001,5.000049991798719,0.025124553854007567,-0.02082502483642057,0
936,0.03743999999999992,5.000049991798719,0.024466974178816228,-0.020185957023759908,0
937,0.03747999999999996,5.000378781950543,0.023809394504130166,-0.019546833985597475,0
938,0.03752,5.000707572102282,0.024138184341410046,-0.019894025162408704,0
939,0.03756000000000004,5.000049991798719,0.022823024993048696,-0.018597211786207567,0
940,0.03760000000000008,5.000378781950543,0.021836655483104705,-0.01762913281128123,0
941,0.037639999999999896,5.000049991798719,0.02019270630239349,-0.0160034186592822,0
942,0.037679999999999936,4.99972120164681,0.019863916466630674,-0.015692808277372825,0
943,0.037719999999999976,5.000378781950543,0.01821996728971463,-0.01406698291150886,0
944,0.037760000000000016,5.000707572102282,0.01821996728971463,-0.014085051012428674,0
945,0.037800000000000056,5.000378781950543,0.01789117745471111,-0.013774273501494584,0
946,0.037840000000000096,4.99972120164681,0.01821996728971463,-0.014121019817612851,0
947,0.037879999999999914,4.99972120164681,0.01789117745471111,-0.013810130555279954,0
948,0.037919999999999954,5.000049991798719,0.016576018115963126,-0.012512815815884908,0
949,0.037959999999999994,5.000378781950543,0.01756238761983417,-0.01351697388153456,0
950,0.038000000000000034,5.000049991798719,0.01756238761983417,-0.013534706342100118,0
951,0.038040000000000074,5.000707572102282,0.016576018115963126,-0.012566013134561784,0
952,0.038080000000000114,4.99972120164681,0.01789117745471111,-0.013898792543009766,0
953,0.03811999999999993,4.99972120164681,0.017233597785083862,-0.013258776654670876,0
954,0.03815999999999997,5.000378781950543,0.01789117745471111,-0.013933863756017845,0
955,0.03820000000000001,4.999392411494816,0.01789117745471111,-0.013951314777634824,0
956,0.03824000000000005,5.000378781950543,0.017233597785083862,-0.013311129659611577,0
957,0.03828000000000009,5.000378781950543,0.01789117745471111,-0.01398604735154443,0
958,0.03831999999999991,4.99972120164681,0.01789117745471111,-0.014003328785891991,0
959,0.03835999999999995,4.99972120164681,0.01756238761983417,-0.013691763739371615,0
960,0.03839999999999999,5.000049991798719,0.016904807950460177,-0.013051352154957882,0
961,0.03844000000000003,5.000049991798719,0.01789117745471111,-0.014054832983996013,0
962,0.03848000000000007,4.99972120164681,0.017233597785083862,-0.013414307822835625,0
963,0.03852000000000011,5.000049991798719,0.01821996728971463,-0.014417674964096024,0
964,0.03855999999999993,5.000378781950543,0.018548757124844717,-0.014763405509132898,0
965,0.03859999999999997,5.000707572102282,0.019206336795484613,-0.015437868908703307,0
966,0.03864000000000001,5.000378781950543,0.019206336795484613,-0.015454695603037166,0
967,0.03868000000000005,5.000049991798719,0.018548757124844717,-0.014813885539148024,0
968,0.03872000000000009,5.000049991798719,0.019863916466630674,-0.016145757347750027,0
969,0.038759999999999906,5.000378781950543,0.019863916466630674,-0.016162412622915512,0
970,0.038799999999999946,5.000378781950543,0.019863916466630674,-0.016179010655351166,0
971,0.038839999999999986,5.000049991798719,0.019863916466630674,-0.016195551394615173,0
972,0.038880000000000026,5.000049991798719,0.019863916466630674,-0.016212034790904026,0
973,0.038920000000000066,5.000049991798719,0.02085028597429857,-0.01721483030272122,0
974,0.038960000000000106,4.99972120164681,0.02019270630239349,-0.016573619194301416,0
975,0.038999999999999924,4.99972120164681,0.020521496138282788,-0.016918720105128255,0
976,0.039039999999999964,5.000378781950543,0.02117907581044083,-0.0175925533164339,0
977,0.039080000000000004,5.000049991798719,0.02117907581044083,-0.017608749273191646,0
978,0.039120000000000044,5.000049991798719,0.02117907581044083,-0.01762488760160266,0
979,0.039160000000000084,5.000049991798719,0.021507865646709548,-0.017969758092622592,0
980,0.0391999999999999,5.000707572102282,0.022494235156274286,-0.018972150538610275,0
981,0.03923999999999994,5.000049991798719,0.022823024993048696,-0.019316905549456215,0
982,0.03927999999999998,5.000049991798719,0.02216544531962629,-0.018675233244376893,0
983,0.03932000000000002,5.000049991798719,0.021836655483104705,-0.018362292927739745,0
984,0.03936000000000006,4.99972120164681,0.02315181482994949,-0.019693243903927682,0
985,0.0394000000000001,5.000378781950543,0.023809394504130166,-0.020366557275475934,0
986,0.03943999999999992,5.000707572102282,0.023809394504130166,-0.02038223300008269,0
987,0.03947999999999996,5.000378781950543,0.024795764016348754,-0.02138422022401172,0
988,0.03952,5.000049991798719,0.025124553854007567,-0.02172856972099961,0
989,0.03956000000000004,5.000378781950543,0.025782133529704057,-0.022401650964809873,0
990,0.03960000000000008,5.000049991798719,0.028083662398618273,-0.02471862327244041,0
991,0.0396399999999999,5.000378781950543,0.028412452237539368,-0.025062798383150696,0
992,0.03967999999999994,5.000049991798719,0.030385191273714543,-0.02705086448731142,0
993,0.03971999999999998,5.000049991798719,0.031700350633686175,-0.02838129267524228,0
994,0.03976000000000002,5.000378781950543,0.033015509995673945,-0.02971166258959478,0
995,0.03980000000000006,5.000049991798719,0.034988249042434,-0.03169955387821193,0
996,0.0398400000000001,5.001036362253937,0.0392625169926218,-0.035988915725491816,0
997,0.039879999999999916,5.000049991798719,0.04222162558596615,-0.03896305983756225,0
998,0.039919999999999956,5.000049991798719,0.05044137173192248,-0.047197783090934614,0
999,0.039959999999999996,4.99972120164681,0.06425054543319586,-0.0610218754560275,0
1000,0.040000000000000036,4.99972120164681,0.10041742997579037,-0.09720362018721665,0
1001,0.040040000000000076,5.000378781950543,0.11356902472517753,-0.1103700166190039,0
1002,0.040080000000000116,4.999392411494816,0.10041742997579037,-0.09723316501551178,0
1003,0.040119999999999933,5.000378781950543,0.09318405294752126,-0.09001447256698147,0
1004,0.040159999999999973,5.000378781950543,0.08792341514628582,-0.08476846075033731,0
1005,0.040200000000000014,4.99972120164681,0.08233398751715135,-0.07919360048231552,0
1006,0.040240000000000054,5.000378781950543,0.07181271207711976,-0.06868683375224774,0
1007,0.040280000000000094,4.999392411494816,0.0626065961714958,-0.05949516787842952,0
1008,0.04031999999999991,5.000378781950543,0.06293538602358648,-0.05983834905782027,0
1009,0.04035999999999995,5.000378781950543,0.0626065961714958,-0.05952389180283847,0
1010,0.04039999999999999,4.999392411494816,0.05866111795613836,-0.055592687429375655,0
1011,0.04044000000000003,5.000049991798719,0.05603079915588792,-0.05297658369144553,0
1012,0.04048000000000007,5.000378781950543,0.054058060060948765,-0.05101800085555576,0
1013,0.04052000000000011,5.000707572102282,0.051098951426982675,-0.04807298965433537,0
1014,0.04055999999999993,5.000049991798719,0.052414110818605225,-0.0494021876300314,0
1015,0.04059999999999997,5.000049991798719,0.05307169051516736,-0.05007374704029097,0
1016,0.04064000000000001,4.99972120164681,0.05372927021222988,-0.05074524755963619,0
1017,0.04068000000000005,5.000378781950543,0.05340048036363608,-0.05043031962153721,0
1018,0.04072000000000009,5.000378781950543,0.05175653112254362,-0.04880017335944441,0
1019,0.04075999999999991,5.000049991798719,0.04781105295669137,-0.04486843922205569,0
1020,0.04079999999999995,5.000378781950543,0.045838313880531376,-0.042909385205448874,0
1021,0.04083999999999999,4.99972120164681,0.04189283574175878,-0.03897753313961199,0
1022,0.04088000000000003,4.99972120164681,0.04024888652260587,-0.03734715098973765,0
1023,0.04092000000000007,5.000049991798719,0.03893372714954513,-0.036045499665926455,0
1024,0.04096000000000011,5.000049991798719,0.03696098809372539,-0.03408620962362352,0
1025,0.040999999999999925,5.000378781950543,0.030056401434036775,-0.027195012926683713,0
1026,0.041039999999999965,4.99972120164681,0.028412452237539368,-0.025564394627800677,0
1027,0.041080000000000005,4.99972120164681,0.027754872559823354,-0.024920086768867353,0
1028,0.041120000000000045,4.99972120164681,0.02676850304419573,-0.023946929980162956,0
1029,0.041160000000000085,5.000049991798719,0.02117907581044083,-0.01837065636911385,0
1030,0.0411999999999999,5.000378781950543,0.019863916466630674,-0.01706859153210412,0
1031,0.04123999999999994,5.000049991798719,0.017233597785083862,-0.014451308230434765,0
1032,0.04127999999999998,5.000378781950543,0.014274489278030808,-0.011505175965989161,0
1033,0.04132000000000002,4.99972120164681,0.014274489278030808,-0.011518093061650369,0
1034,0.04136000000000006,5.000049991798719,0.016904807950460177,-0.014161269673789537,0
1035,0.0414000000000001,5.000378781950543,0.015260858779241576,-0.012530119277995461,0
1036,0.04143999999999992,5.001036362253937,0.012630540111881347,-0.00991254021411214,0
1037,0.04147999999999996,5.000378781950543,0.012630540111881347,-0.009925220638650822,0
1038,0.04152,5.000049991798719,0.012630540111881347,-0.0099378418779326,0
1039,0.04156000000000004,5.000049991798719,0.015918438447348998,-0.013238302261778585,0
1040,0.04160000000000008,4.99972120164681,0.016576018115963126,-0.013908384782893423,0
1041,0.0416399999999999,5.000049991798719,0.01953512663099438,-0.016879936950246133,0
1042,0.04167999999999994,5.000378781950543,0.018877546960101396,-0.01623474172786648,0
1043,0.04171999999999998,5.000378781950543,0.01756238761983417,-0.014931907629348505,0
1044,0.04176000000000002,4.99972120164681,0.015589648613231935,-0.012971434655448557,0
1045,0.04180000000000006,5.000707572102282,0.013945699444547363,-0.011339692308809593,0
1046,0.0418400000000001,4.99972120164681,0.01328811977796078,-0.010694260252675529,0
1047,0.04187999999999992,4.99972120164681,0.01065780111668721,-0.00807602998999839,0
1048,0.04191999999999996,5.000049991798719,0.010986590948902406,-0.00841684900936448,0
1049,0.04196,5.000707572102282,0.012630540111881347,-0.010072768149132962,0
1050,0.04200000000000004,4.99972120164681,0.012301750279031881,-0.009755889084469603,0
1051,0.04204000000000008,4.99972120164681,0.011644170613713423,-0.009110160981165542,0
1052,0.042079999999999895,4.99972120164681,0.012630540111881347,-0.010108322838281794,0
1053,0.042119999999999935,5.000049991798719,0.011644170613713423,-0.009133686499775768,0
1054,0.042159999999999975,5.000378781950543,0.010986590948902406,-0.008487780799793922,0
1055,0.042200000000000015,5.000049991798719,0.01032901128459894,-0.00784181591061472,0
1056,0.042240000000000055,4.99972120164681,0.011644170613713423,-0.009168530830950502,0
1057,0.042280000000000095,5.000049991798719,0.01295932994485767,-0.010495186575889182,0
1058,0.04231999999999991,4.99972120164681,0.014274489278030808,-0.011821783152580109,0
1059,0.04235999999999995,5.000049991798719,0.01328811977796078,-0.01084679173357559,0
1060,0.04239999999999999,5.000049991798719,0.012301750279031881,-0.009871741161758435,0
1061,0.04244000000000003,4.99972120164681,0.014603279111640999,-0.012184529776698181,0
1062,0.04248000000000007,5.000049991798719,0.015918438447348998,-0.013510889759802427,0
1063,0.04252000000000011,5.000378781950543,0.01756238761983417,-0.015165980455270237,0
1064,0.04255999999999993,5.000378781950543,0.017233597785083862,-0.014848273030283708,0
1065,0.04259999999999997,5.000378781950543,0.01821996728971463,-0.01584566584332807,0
1066,0.04264000000000001,5.000378781950543,0.016576018115963126,-0.014212680889182464,0
1067,0.04268000000000005,5.000378781950543,0.014932068945377922,-0.012579636862611657,0
1068,0.04272000000000009,5.000049991798719,0.01295932994485767,-0.010617743944404085,0
1069,0.04275999999999991,5.000378781950543,0.011644170613713423,-0.009313371648434104,0
1070,0.04279999999999995,5.000378781950543,0.011315380781244458,-0.008995309819237698,0
1071,0.04283999999999999,5.000378781950543,0.011315380781244458,-0.009005978806518525,0
1072,0.04288000000000003,5.000707572102282,0.009013851957515154,-0.00671505997066142,0
1073,0.04292000000000007,4.99972120164681,0.009342641789095676,-0.007054400807961582,0
1074,0.04296000000000011,5.000378781950543,0.009013851957515154,-0.006736103017877042,0
1075,0.04299999999999993,4.99972120164681,0.009013851957515154,-0.006746536113750909,0
1076,0.04303999999999997,4.999392411494816,0.009671431620803153,-0.007414489946564672,0
1077,0.04308000000000001,5.000378781950543,0.010000221452637598,-0.0077535950415230735,0
1078,0.04312000000000005,5.000049991798719,0.01032901128459894,-0.00809264125082494,0
1079,0.04316000000000009,5.000378781950543,0.011315380781244458,-0.009089208260317786,0
1080,0.043199999999999905,5.000049991798719,0.01328811977796078,-0.011072085927350117,0
1081,0.043239999999999945,4.99972120164681,0.014274489278030808,-0.0120685352778381,0
1082,0.043279999999999985,4.999063621342738,0.015918438447348998,-0.01372250550098059,0
1083,0.043320000000000025,5.000049991798719,0.018877546960101396,-0.01669157629493893,0
1084,0.043360000000000065,5.000049991798719,0.02216544531962629,-0.019989378187697315,0
1085,0.043400000000000105,4.99972120164681,0.02019270630239349,-0.018026483981041827,0
1086,0.04343999999999992,5.000378781950543,0.020521496138282788,-0.018365059930838624,0
1087,0.04347999999999996,5.000378781950543,0.01789117745471111,-0.015744468691160765,0
1088,0.04352,5.000049991798719,0.019206336795484613,-0.01706929683314,0
1089,0.04356000000000004,4.99972120164681,0.01953512663099438,-0.01740769685516217,0
1090,0.04360000000000008,5.000378781950543,0.017233597785083862,-0.015115719609734323,0
1091,0.0436399999999999,5.000707572102282,0.013616909611190692,-0.011508524479626168,0
1092,0.04367999999999994,5.000378781950543,0.020521496138282788,-0.01842254552380578,0
1093,0.04371999999999998,4.99972120164681,0.019863916466630674,-0.017774341873211617,0
1094,0.04376000000000002,5.000049991798719,0.02085028597429857,-0.018770028937243197,0
1095,0.04380000000000006,5.000707572102282,0.025124553854007567,-0.02305355594062388,0
1096,0.0438400000000001,5.000707572102282,0.02315181482994949,-0.02109001764021434,0
1097,0.04387999999999992,4.999392411494816,0.027754872559823354,-0.025702217727048563,0
1098,0.04391999999999996,4.999392411494816,0.024795764016348754,-0.022752193207846893,0
1099,0.04396,4.999063621342738,0.028741242076586612,-0.02670669699433626,0
1100,0.04400000000000004,4.998406041038327,0.023480604666976643,-0.021455027048287265,0
1101,0.04404000000000008,5.001693942556992,0.024466974178816228,-0.022450305796992528,0
1102,0.0440799999999999,4.9970908804284875,0.019863916466630674,-0.017856099131636563,0
1103,0.04411999999999994,4.998734831190575,0.01789117745471111,-0.015892153013833198,0
1104,0.04415999999999998,4.99643330012306,0.01032901128459894,-0.008338721623109517,0
1105,0.04420000000000002,5.000049991798719,0.008685062126061585,-0.006703449167881105,0
1106,0.04424000000000006,4.99972120164681,0.006054743479005864,-0.004081749187364973,0
1107,0.0442800000000001,4.99972120164681,0.0027668451816259126,-0.0008024115597269604,0
1108,0.044319999999999915,4.99972120164681,0.0021092655236763236,-0.00015333461535432455,0
1109,0.044359999999999955,5.001036362253937,-0.0024937920677107622,0.004441278177327673,0
1110,0.044399999999999995,5.000049991798719,-0.006439269983302923,0.008378369167133613,0
1111,0.044440000000000035,4.999392411494816,-0.010384747880516562,0.01231551796886756,0
1112,0.044480000000000075,5.000049991798719,-0.0116999071754995,0.01362240595540623,0
1113,0.044520000000000115,5.000378781950543,-0.0166317545134594,0.018546039728027992,0
1114,0.04455999999999993,5.000049991798719,-0.01991965272276132,0.0218257820705111,0
1115,0.04459999999999997,4.99972120164681,-0.025180289830972882,0.02707832096517935,0
1116,0.04464000000000001,4.99972120164681,-0.029454557457189598,0.03134454798522804,0
1117,0.04468000000000005,5.000049991798719,-0.0166317545134594,0.018513761996149177,0
1118,0.04472000000000009,5.000049991798719,-0.0113711173519455,0.01324519930289491,0
1119,0.04475999999999991,5.000378781950543,-0.009727168232258263,0.01159338211721003,0
1120,0.04479999999999995,5.000049991798719,-0.007096849634115457,0.008955252870292887,0
1121,0.04483999999999999,5.000049991798719,-0.0047953208540382625,0.006645970809492103,0
1122,0.04488000000000003,5.000049991798719,-0.0031513717215847087,0.004994325714540681,0
1123,0.04492000000000007,5.000049991798719,-0.00019226327513760522,0.002027578573344643,0
1124,0.04496000000000011,4.999392411494816,0.001780475694892425,4.725812518676514e-05,0
1125,0.04499999999999993,5.000378781950543,0.0014516858662357995,0.0003685236405584543,0
1126,0.04503999999999997,5.000049991798719,0.0024380553525874815,-0.0006253130466630352,0
1127,0.04508000000000001,4.99972120164681,0.0014516858662357995,0.0003536462981573226,0
1128,0.04512000000000005,4.99972120164681,0.0027668451816259126,-0.0009688661531504113,0
1129,0.04516000000000009,5.000049991798719,0.00013652655288240445,0.0016541562909170183,0
1130,0.04519999999999991,5.000378781950543,-0.0031513717215847087,0.0049348152769308345,0
1131,0.04523999999999995,5.000049991798719,-0.012028696998925656,0.01380495810637666,0
1132,0.04527999999999999,5.000378781950543,-0.021892391642189743,0.02366152708599413,0
1133,0.04532000000000003,5.000378781950543,-0.014659015581730453,0.0164210820891828,0
1134,0.04536000000000007,5.000049991798719,-0.009727168232258263,0.011482222473055716,0
1135,0.04540000000000011,5.000049991798719,-0.007754429284417372,0.009502527870017072,0
1136,0.045439999999999925,5.000378781950543,-0.00874079875891258,0.010481998241889851,0
1137,0.045479999999999965,5.000378781950543,-0.00874079875891258,0.010475155632319957,0
1138,0.045520000000000005,5.000049991798719,-0.00808321910937683,0.00981078980610391,0
1139,0.045560000000000045,5.000378781950543,-0.00874079875891258,0.010461639651046736,0
1140,0.045600000000000085,5.000378781950543,-0.010384747880516562,0.012098915278704516,0
1141,0.0456399999999999,5.000378781950543,-0.010713537704454032,0.012421087857264281,0
1142,0.04567999999999994,5.000049991798719,-0.010713537704454032,0.012414526797740199,0
1143,0.04571999999999998,4.99972120164681,-0.012028696998925656,0.013723181155190781,0
1144,0.04576000000000002,5.000378781950543,-0.011042327528263687,0.012730362806025446,0
1145,0.04580000000000006,5.000378781950543,-0.00939837840793746,0.01108002080109428,0
1146,0.0458400000000001,5.000049991798719,-0.006768059808773,0.008443365245971104,0
1147,0.04587999999999992,5.000378781950543,-0.006439269983302923,0.008108294327304326,0
1148,0.04591999999999996,5.000378781950543,-0.007425639459330238,0.009088438506381705,0
1149,0.04596,4.99972120164681,-0.004466531027802631,0.006123160507005593,0
1150,0.04600000000000004,4.99972120164681,-0.005124110680146385,0.006774626252827829,0
1151,0.04604000000000008,5.000378781950543,-0.005124110680146385,0.006768567939230724,0
1152,0.0460799999999999,5.000707572102282,-0.003808951374948702,0.005447405844330663,0
1153,0.04611999999999994,5.000049991798719,-0.0028225818947114484,0.004455089028629965,0
1154,0.04615999999999998,5.000049991798719,-0.00019226327513760522,0.0018188784575507177,0
1155,0.04620000000000002,4.99972120164681,0.001122896037706475,0.0004978825062542953,0
1156,0.04624000000000006,5.000378781950543,0.0024380553525874815,-0.0008230582055540159,0
1157,0.0462800000000001,5.000378781950543,0.0014516858662357995,0.00015758505324537904,0
1158,0.04631999999999992,5.000378781950543,0.0014516858662357995,0.0001519139222971675,0
1159,0.04635999999999996,5.000378781950543,0.0004653163810297567,0.0011326672997682844,0
1160,0.0464,5.000049991798719,0.0014516858662357995,0.0001407366560310548,0
1161,0.04644000000000004,4.99972120164681,0.0014516858662357995,0.00013523037207639668,0
1162,0.04648000000000008,5.000707572102282,0.0007941062093044515,0.0007873585443858547,0
1163,0.046519999999999895,5.000378781950543,-0.0015074225859438989,0.003083490578485894,0
1164,0.046559999999999935,5.000378781950543,-0.0031513717215847087,0.004722097599978494,0
1165,0.046599999999999975,5.000049991798719,-0.0047953208540382625,0.006360759188197321,0
1166,0.046640000000000015,5.000049991798719,-0.005781690331979852,0.0073418956141190605,0
1167,0.046680000000000055,5.000049991798719,-0.0047953208540382625,0.006350347498063076,0
1168,0.046720000000000095,4.999392411494816,-0.005124110680146385,0.006674013021043193,0
1169,0.04675999999999991,5.000378781950543,-0.007096849634115457,0.008641681927343159,0
1170,0.04679999999999995,5.000378781950543,-0.010713537704454032,0.012253354125336785,0
1171,0.04683999999999999,4.99972120164681,-0.012028696998925656,0.01356355164204684,0
1172,0.04688000000000003,5.000049991798719,-0.01564538504817102,0.017175331926768414,0
1173,0.04692000000000007,5.000707572102282,-0.017289334156344746,0.018814427201706972,0
1174,0.04696000000000011,4.99972120164681,-0.020577232363083744,0.022097525423947963,0
1175,0.04699999999999993,5.000378781950543,-0.021234812002893247,0.02275035884484412,0
1176,0.04703999999999997,5.000378781950543,-0.02320755091924319,0.0247184052241131,0
1177,0.04708000000000001,5.000378781950543,-0.027481818555480722,0.028988033920751232,0
1178,0.04712000000000005,4.999063621342738,-0.030769716722423582,0.032271346660628225,0
1179,0.04716000000000009,5.000707572102282,-0.03208487598559902,0.033581973923727325,0
1180,0.04719999999999991,5.000378781950543,-0.03471519450577058,0.036207813784673505,0
1181,0.04723999999999995,5.000378781950543,-0.035043984320212454,0.03653217819400907,0
1182,0.04727999999999999,5.000049991798719,-0.035372774134525484,0.03685659577001106,0
1183,0.04732000000000003,5.000049991798719,-0.03668793339048888,0.03816743586654434,0
1184,0.04736000000000007,5.000378781950543,-0.03866067227056637,0.04013590857756909,0
1185,0.04740000000000011,5.000707572102282,-0.04194857039370768,0.04341959343294357,0
1186,0.04743999999999993,4.99972120164681,-0.046551627744407784,0.048018490327484786,0
1187,0.04747999999999997,5.000049991798719,-0.053456213722917104,0.054918968571180095,0
1188,0.04752000000000001,5.000378781950543,-0.0629911180754263,0.06444981781937334,0
1189,0.04756000000000005,5.000378781950543,-0.07351239171679176,0.07496708889549171,0
1190,0.04760000000000009,5.000378781950543,-0.0863351937865197,0.08778594084703127,0
1191,0.047639999999999905,5.000378781950543,-0.10014436502334141,0.10159121432013346,0
1192,0.047679999999999945,5.000049991798719,-0.11395353602801415,0.11539653982238766,0
1193,0.047719999999999985,4.99972120164681,-0.1290778659083996,0.1305170763679111,0
1194,0.047760000000000025,5.000378781950543,-0.14321582619461398,0.14465129539250035,0
1195,0.047800000000000065,5.000378781950543,-0.15603862717110994,0.15747040708571441,0
1196,0.047840000000000105,5.000049991798719,-0.1695190074651277,0.17094714997932733,0
1197,0.04787999999999992,5.000049991798719,-0.18168422851194627,0.18310878541258072,0
1198,0.04791999999999996,5.000378781950543,-0.1945070288746319,0.19592805185193377,0
1199,0.04796,4.99972120164681,-0.21028893673008708,0.2117064773771132,0
1200,0.04800000000000004,5.000378781950543,-0.22245415715445271,0.22386826696651696,0
1201,0.04804000000000008,5.000707572102282,-0.23560574659173333,0.23701647696584166,0
1202,0.0480799999999999,4.99972120164681,-0.24678459744067005,0.24819199967495692,0
1203,0.04811999999999994,5.000049991798719,-0.2592786070244412,0.26068273231760786,0
1204,0.04815999999999998,5.000378781950543,-0.2724301958441417,0.27383109529489563,0
1205,0.04820000000000002,5.000378781950543,-0.28229388731310745,0.28369161191960335,0
1206,0.04824000000000006,4.99972120164681,-0.2961030551589063,0.2974976558181883,0
1207,0.0482800000000001,5.000707572102282,-0.3082682742471789,0.30965980175462415,0
1208,0.04831999999999992,4.99972120164681,-0.3207622828404161,0.32215078788918017,0
1209,0.04835999999999996,4.99972120164681,-0.33457144999609184,0.3359569831765558,0
1210,0.0484,5.001036362253937,-0.3493669859572063,0.350749597756425,0
1211,0.04844000000000004,5.000378781950543,-0.36350494227329033,0.36488468307444216,0
1212,0.04848000000000008,5.000378781950543,-0.3799444260297289,0.3813213461115677,0
1213,0.0485199999999999,4.99972120164681,-0.39605511976305396,0.39742926929936156,0
1214,0.04855999999999994,5.000378781950543,-0.413152182121866,0.41452361118090564,0
1215,0.04859999999999998,4.99972120164681,-0.4305780337382751,0.43194679228224653,0
1216,0.04864000000000002,4.999392411494816,-0.4496478331515509,0.4510139710360472,0
1217,0.04868000000000006,5.000049991798719,-0.4690464217044603,0.4704099886779261,0
1218,0.0487200000000001,4.999063621342738,-0.488773799368146,0.49013484507133764,0
1219,0.048759999999999915,5.000378781950543,-0.5078435972696403,0.509202171235088,0
1220,0.048799999999999955,5.000378781950543,-0.5288861323036679,0.53024228395514,0
1221,0.048839999999999995,5.000049991798719,-0.5489422979369439,0.5502960765889127,0
1222,0.048880000000000035,5.000378781950543,-0.5699848317692267,0.5713362866263363,0
1223,0.048920000000000075,5.000378781950543,-0.5874106796294062,0.5887598597859423,0
1224,0.048960000000000115,4.99972120164681,-0.6031925792091887,0.6045395336485486,0
1225,0.04899999999999993,5.000049991798719,-0.6153577932281785,0.6167025708223433,0
1226,0.04903999999999997,5.000049991798719,-0.6245639009948296,0.6259065505038361,0
1227,0.04908000000000001,4.99972120164681,-0.6281805861558869,0.6295211562273013,0
1228,0.04912000000000005,5.000049991798719,-0.6285093757150592,0.6298479148834528,1
1229,0.04916000000000009,5.000049991798719,-0.6278517965965605,0.6291883532829856,0
1230,0.04919999999999991,4.99972120164681,-0.6209472158151562,0.6222818383266226,0
1231,0.04923999999999995,4.999392411494816,-0.613385055833947,0.6147177923628999,0
1232,0.04927999999999999,5.000049991798719,-0.6028637896381986,0.6041946882619982,0
1233,0.04932000000000003,5.000049991798719,-0.5920137337098196,0.5933428423902223,0
1234,0.04936000000000007,5.000049991798719,-0.5818212567773549,0.5831486233599965,0
1235,0.04940000000000011,5.000049991798719,-0.5712999901131733,0.5726256623270538,0
1236,0.04943999999999993,4.99972120164681,-0.5611075128842135,0.5624315383411835,0
1237,0.04947999999999997,5.000378781950543,-0.5525589834833818,0.553881409677632,0
1238,0.04952000000000001,5.000049991798719,-0.5413801371900578,0.542701011497608,0
1239,0.04956000000000005,5.000378781950543,-0.5302012907229607,0.5315206604011501,0
1240,0.04960000000000009,4.99972120164681,-0.5180360752531358,0.519353987440115,0
1241,0.049639999999999906,5.000378781950543,-0.5061996491943743,0.5075161509085984,0
1242,0.049679999999999946,5.000378781950543,-0.4923904852154146,0.49370562335513735,0
1243,0.049719999999999986,5.000049991798719,-0.4762797935761899,0.4775936149189586,0
1244,0.049760000000000026,4.99972120164681,-0.46181304976145965,0.46312560096361044,0
1245,0.049800000000000066,5.000378781950543,-0.4470175160203239,0.44832884361647835,0
1246,0.049840000000000106,5.000378781950543,-0.43123561303655855,0.4325457634391225,0
1247,0.049879999999999924,4.99972120164681,-0.4167688683399404,0.41807788783860356,0
1248,0.049919999999999964,5.000378781950543,-0.40164454403872485,0.40295247879996254,0
1249,0.049960000000000004,5.000049991798719,-0.38619142976322296,0.38749832582979943,0
1250,0.050000000000000044,5.000378781950543,-0.3736974222444409,0.3750033255349142,0
1251,0.050040000000000084,5.000049991798719,-0.3592306764380789,0.3605356327463064,0
1252,0.0500799999999999,5.000378781950543,-0.34607908910179486,0.34738314409644167,0
1253,0.05011999999999994,5.000707572102282,-0.3352290293782374,0.33653222860228643,0
1254,0.05015999999999998,5.000049991798719,-0.3220774416278766,0.3233798304981399,0
1255,0.05020000000000002,5.000707572102282,-0.30925464335402775,0.3105562671606599,0
1256,0.05024000000000006,5.000378781950543,-0.29840458310923823,0.29970548701525096,0
1257,0.0502800000000001,5.000378781950543,-0.2855817844415817,0.2868820134823594,0
1258,0.05031999999999992,5.000049991798719,-0.2717726164084279,0.27307221549124516,0
1259,0.05035999999999996,5.000049991798719,-0.2582922378540287,0.2595912517575689,0
1260,0.0504,5.000049991798719,-0.2454694385255246,0.24676791189940028,0
1261,0.05044000000000004,5.000378781950543,-0.23363300819012922,0.23493098555440337,0
1262,0.05048000000000008,5.000378781950543,-0.21620715209501734,0.21750467783972713,0
1263,0.0505199999999999,5.000378781950543,-0.20174040334725885,0.20303752173194053,0
1264,0.05055999999999994,4.99972120164681,-0.18398575679732287,0.18528251195053852,0
1265,0.05059999999999998,5.000378781950543,-0.1655735303292713,0.16686996624813655,0
1266,0.05064000000000002,4.99972120164681,-0.14551735458997894,0.14681351513969282,0
1267,0.05068000000000006,4.99972120164681,-0.12480359879672413,0.12609952771010036,0
1268,0.0507200000000001,4.99972120164681,-0.10047315481186896,0.10176889568886907,0
1269,0.050759999999999916,5.001036362253937,-0.07416997131494572,0.07546556762221354,0
1270,0.050799999999999956,4.999063621342738,-0.04786678698281073,0.04916228205320805,0
1271,0.050839999999999996,5.000378781950543,-0.018275703619711994,0.01957114065185575,0
1272,0.050880000000000036,5.000049991798719,0.009013851957515154,-0.007718429899714108,0
1273,0.050920000000000076,5.000378781950543,0.03564582872569445,-0.03435037871349084,0
1274,0.050960000000000116,5.000378781950543,0.061291436764380286,-0.05999591600465154,0
1275,0.050999999999999934,5.000049991798719,0.08299156723636938,-0.08169593307207151,0
1276,0.051039999999999974,4.99972120164681,0.10403411851227598,-0.10273832842289704,0
1277,0.051080000000000014,4.999392411494816,0.11948724242641957,-0.11819125402843117,0
1278,0.051120000000000054,5.000378781950543,0.13033730831487508,-0.12904107936218207,0
1279,0.051160000000000094,5.000049991798719,0.13855705528841938,-0.137260543672808,0
1280,0.05119999999999991,4.99972120164681,0.1421737439808442,-0.1408769077324286,0
1281,0.05123999999999995,4.99972120164681,0.14480406303910212,-0.1435068603267694,0
1282,0.05127999999999999,4.99972120164681,0.14348890350900304,-0.1421912926408564,0
1283,0.05132000000000003,5.000049991798719,0.14052979457337558,-0.1392317339971752,0
1284,0.05136000000000007,4.99972120164681,0.13855705528841938,-0.1372585035920208,0
1285,0.05140000000000011,5.000707572102282,0.13526915648987867,-0.13397007240166936,0
1286,0.05143999999999993,5.000378781950543,0.13296762733813555,-0.13166796972746936,0
1287,0.05147999999999997,4.99972120164681,0.12836456905254606,-0.12706429693017607,0
1288,0.05152000000000001,4.99972120164681,0.12639182979460575,-0.1250909023131146,0
1289,0.05156000000000005,5.000378781950543,0.1250766702917519,-0.12377504674598039,0
1290,0.05160000000000009,5.000049991798719,0.12113119179491064,-0.11982883162238417,0
1291,0.05163999999999991,5.000049991798719,0.11981603229987327,-0.11851289508122598,0
1292,0.05167999999999995,5.000049991798719,0.11948724242641957,-0.11818328788581656,0
1293,0.05171999999999999,5.000049991798719,0.11784329306098568,-0.11653848106654419,0
1294,0.05176000000000003,5.000049991798719,0.1168569234431935,-0.11555121400740193,0
1295,0.05180000000000007,5.000049991798719,0.11455539433929632,-0.11324874761943093,0
1296,0.05184000000000011,4.99972120164681,0.10995233614951355,-0.10864471244805335,0
1297,0.051879999999999926,4.99972120164681,0.10732201719471773,-0.10601337695975699,0
1298,0.051919999999999966,4.99972120164681,0.10206137930871124,-0.10075168313437044,0
1299,0.051960000000000006,4.99972120164681,0.09745832118428896,-0.09614752981112329,0
1300,0.052000000000000046,4.99972120164681,0.08759462528475882,-0.08628269960016549,0
1301,0.052040000000000086,4.99972120164681,0.08167640779842875,-0.08036330883705223,0
1302,0.052079999999999904,4.998734831190575,0.07444303092521187,-0.07312871986934727,0
1303,0.052119999999999944,4.999063621342738,0.06655207440480995,-0.06523651258480395,0
1304,0.052159999999999984,4.997748460733576,0.05931869765744993,-0.058001846552100195,0
1305,0.052200000000000024,5.002680313010939,0.05734595855501376,-0.056027779791966076,0
1306,0.052240000000000064,4.998406041038327,0.05471563975876172,-0.05339609511490509,0
1307,0.052280000000000104,4.998406041038327,0.048139842803156765,-0.0468188942050162,0
1308,0.05231999999999992,4.998734831190575,0.04912621234330475,-0.04780382186743179,0
1309,0.05235999999999996,5.000707572102282,0.04123525605372079,-0.039911385927082904,0
1310,0.0524,4.998406041038327,0.03564582872569445,-0.034320441326062434,0
1311,0.05244000000000004,4.999392411494816,0.028741242076586612,-0.027414299932919967,0
1312,0.05248000000000008,4.99972120164681,0.027097292882612076,-0.02576875867544215,0
1313,0.0525199999999999,5.000049991798719,0.018877546960101396,-0.01754738352191257,0
1314,0.05255999999999994,4.99972120164681,0.01821996728971463,-0.016888137605323233,0
1315,0.05259999999999998,4.99972120164681,0.014274489278030808,-0.012940956484962213,0
1316,0.05264000000000002,4.99972120164681,0.011972960446309217,-0.010637687835172771,0
1317,0.05268000000000006,5.000049991798719,0.009671431620803153,-0.008334382635665188,0
1318,0.0527200000000001,5.000378781950543,0.009013851957515154,-0.00767499019626991,0
1319,0.05275999999999992,5.000707572102282,0.006712323140007484,-0.005371612354746147,0
1320,0.05279999999999996,5.000049991798719,0.005725953648695714,-0.004383357746073069,0
1321,0.05284,4.99972120164681,0.004739584158527918,-0.0033950672001270554,0
1322,0.05288000000000004,4.99972120164681,0.00506837398845672,-0.003721900191151456,0
1323,0.05292000000000008,4.99972120164681,0.0024380553525874815,-0.0010895890889029147,0
1324,0.052959999999999896,5.000049991798719,0.0007941062093044515,0.0005563879922244053,0
1325,0.052999999999999936,5.000049991798719,-0.001178632758433426,0.0025311902129051267,0
1326,0.053039999999999976,5.000049991798719,-0.0028225818947114484,0.004177237760503771,0
1327,0.053080000000000016,5.000049991798719,-0.00348016154833046,0.004836950826748093,0
1328,0.053120000000000056,5.000049991798719,-0.004466531027802631,0.005825488562726883,0
1329,0.053160000000000096,5.000378781950543,-0.005452900506126915,0.006814060983667658,0
1330,0.053199999999999914,5.000378781950543,-0.006110480157705198,0.007473878105855036,0
1331,0.053239999999999954,5.000049991798719,-0.007754429284417372,0.009120099072707971,0
1332,0.053279999999999994,5.000049991798719,-0.006439269983302923,0.0078072458224637264,0
1333,0.053320000000000034,4.99972120164681,-0.00874079875891258,0.010111114700531665,0
1334,0.053360000000000074,5.000049991798719,-0.00874079875891258,0.010113488695099732,0
1335,0.053400000000000114,5.000378781950543,-0.010713537704454032,0.012088635367506317,0
1336,0.05343999999999993,5.000378781950543,-0.010713537704454032,0.012091076666523204,0
1337,0.05347999999999997,5.000378781950543,-0.0113711173519455,0.012751131024707957,0
1338,0.05352000000000001,5.000049991798719,-0.011042327528263687,0.012424849162592677,0
1339,0.05356000000000005,5.000707572102282,-0.012686276645394332,0.014071339331034688,0
1340,0.05360000000000009,5.000378781950543,-0.0113711173519455,0.012758754017190649,0
1341,0.05363999999999991,5.000049991798719,-0.012686276645394332,0.014076520056765546,0
1342,0.05367999999999995,5.000049991798719,-0.014001435936796827,0.015394318698724652,0
1343,0.05371999999999999,5.000049991798719,-0.013343856291351444,0.014739410845859557,0
1344,0.05376000000000003,5.000707572102282,-0.015316595226152155,0.01671485385254315,0
1345,0.05380000000000007,5.000049991798719,-0.01597417487006185,0.017375169684605438,0
1346,0.05384000000000011,5.000378781950543,-0.01597417487006185,0.017377937825685433,0
1347,0.05387999999999993,5.000378781950543,-0.01597417487006185,0.017380737756043554,0
1348,0.05391999999999997,5.000049991798719,-0.01630296469182467,0.01771235913348844,0
1349,0.05396000000000001,4.99972120164681,-0.01564538504817102,0.017057642506583953,0
1350,0.05400000000000005,5.000049991798719,-0.01630296469182467,0.017718116463496747,0
1351,0.05404000000000009,5.000049991798719,-0.01597417487006185,0.017392252086647936,0
1352,0.054079999999999906,5.000049991798719,-0.017946913798717698,0.019367947426721904,0
1353,0.054119999999999946,5.000378781950543,-0.018933283261316228,0.020357304101798604,0
1354,0.054159999999999986,5.000049991798719,-0.017946913798717698,0.019373952487003424,0
1355,0.054200000000000026,4.999392411494816,-0.0166317545134594,0.018061841518850374,0
1356,0.054240000000000066,5.000049991798719,-0.01630296469182467,0.01773613031731354,0
1357,0.054280000000000106,4.99972120164681,-0.01597417487006185,0.017410449252048335,0
1358,0.054319999999999924,5.000049991798719,-0.01564538504817102,0.01708479815618047,0
1359,0.054359999999999964,5.000049991798719,-0.014001435936796827,0.015444017573200963,0
1360,0.054400000000000004,5.000049991798719,-0.013343856291351444,0.014789636091091171,0
1361,0.054440000000000044,4.99972120164681,-0.012686276645394332,0.014135284075704982,0
1362,0.054480000000000084,5.000378781950543,-0.012357486822223915,0.01380975118236262,0
1363,0.0545199999999999,5.000049991798719,-0.010713537704454032,0.012169088125429509,0
1364,0.05455999999999994,4.99972120164681,-0.010055958056451306,0.011514823500756083,0
1365,0.05459999999999998,4.99972120164681,-0.010384747880516562,0.011846957141861417,0
1366,0.05464000000000002,5.000378781950543,-0.009727168232258263,0.011192749935309207,0
1367,0.05468000000000006,4.99972120164681,-0.007754429284417372,0.00922341188453478,0
1368,0.0547200000000001,5.000049991798719,-0.007425639459330238,0.008898051242310565,0
1369,0.05475999999999992,5.000049991798719,-0.006439269983302923,0.007915139065122923,0
1370,0.05479999999999996,5.000707572102282,-0.006110480157705198,0.0075898344842685594,0
1371,0.05484,4.999392411494816,-0.005452900506126915,0.006935767853013433,0
1372,0.05488000000000004,5.000378781950543,-0.005452900506126915,0.006939308478344106,0
1373,0.05492000000000008,5.000378781950543,-0.0031513717215847087,0.004641347753321992,0
1374,0.0549599999999999,5.000049991798719,-0.004466531027802631,0.005960102382188012,0
1375,0.05499999999999994,5.000049991798719,-0.0018362124133269458,0.00333340618218618,0
1376,0.05503999999999998,5.000378781950543,-0.0015074225859438989,0.0030082656895622784,0
1377,0.05508000000000002,5.000049991798719,-0.0015074225859438989,0.003011941772830415,0
1378,0.05512000000000006,5.000049991798719,-0.0018362124133269458,0.0033444342599808635,0
1379,0.0551600000000001,5.000049991798719,-0.0005210531030302584,0.0020330040137099686,0
1380,0.055199999999999916,5.000378781950543,-0.0005210531030302584,0.00203675930952453,0
1381,0.055239999999999956,5.000378781950543,0.001780475694892425,-0.00026098813349084704,0
1382,0.055279999999999996,5.000378781950543,0.0014516858662357995,7.160893624563736e-05,0
1383,0.055320000000000036,4.99972120164681,0.0007941062093044515,0.0007330215472871188,0
1384,0.055360000000000076,4.99972120164681,0.0014516858662357995,7.930038413433982e-05,0
1385,0.055400000000000116,4.99972120164681,0.0014516858662357995,8.318424400208246e-05,0
1386,0.055439999999999934,5.000049991798719,0.0024380553525874815,-0.0008992761901867319,0
1387,0.055479999999999974,5.000378781950543,0.003424424840084442,-0.001881711607231898,0
1388,0.055520000000000014,5.000378781950543,0.004739584158527918,-0.0031929120111506004,0
